Adj Close,Close,Date,High,Low,Open,Volume
59.32909393310547,61.84000015258789,2013-01-02 14:30:00,61.84000015258789,60.720001220703125,61.70000076293945,3665200
59.568946838378906,62.09000015258789,2013-01-03 14:30:00,62.744998931884766,61.23500061035156,61.744998931884766,2928400
60.34605026245117,62.900001525878906,2013-01-04 14:30:00,63.125,61.974998474121094,62.1150016784668,2518600
60.437198638916016,62.994998931884766,2013-01-07 14:30:00,63.04999923706055,62.07500076293945,62.60499954223633,2857800
59.54975509643555,62.06999969482422,2013-01-08 14:30:00,62.994998931884766,61.59000015258789,62.875,3122400
59.78481674194336,62.314998626708984,2013-01-09 14:30:00,62.584999084472656,61.845001220703125,62.18000030517578,1755200
60.489959716796875,63.04999923706055,2013-01-10 14:30:00,63.064998626708984,62.279998779296875,62.70000076293945,2277000
60.26451110839844,62.814998626708984,2013-01-11 14:30:00,63.224998474121094,62.5,63.029998779296875,2264600
59.79918670654297,62.33000183105469,2013-01-14 14:30:00,63.13999938964844,62.1150016784668,62.82500076293945,2046800
60.174381256103516,62.54999923706055,2013-01-15 14:30:00,62.75,61.875,62.005001068115234,3347000
60.30425262451172,62.685001373291016,2013-01-16 14:30:00,62.75,62.19499969482422,62.415000915527344,3009800
60.62172317504883,63.01499938964844,2013-01-17 14:30:00,63.275001525878906,62.44499969482422,63.0,3449000
60.9872932434082,63.39500045776367,2013-01-18 14:30:00,63.540000915527344,62.61000061035156,63.16999816894531,3532800
60.84779739379883,63.25,2013-01-22 14:30:00,63.66999816894531,62.45000076293945,63.474998474121094,3831400
60.00603485107422,62.375,2013-01-23 14:30:00,63.29499816894531,62.25,63.08000183105469,2282000
60.12147521972656,62.494998931884766,2013-01-24 14:30:00,63.20000076293945,62.39500045776367,62.45000076293945,2724000
60.25615692138672,62.6349983215332,2013-01-25 14:30:00,63.27000045776367,62.27000045776367,62.685001373291016,2365000
59.74147415161133,62.099998474121094,2013-01-28 14:30:00,62.904998779296875,61.775001525878906,62.904998779296875,2718400
61.0594482421875,63.470001220703125,2013-01-29 14:30:00,63.595001220703125,62.005001068115234,62.33000183105469,2821400
60.76122283935547,63.15999984741211,2013-01-30 14:30:00,64.71499633789062,63.084999084472656,63.584999084472656,3195000
60.116676330566406,62.4900016784668,2013-01-31 14:30:00,62.98500061035156,62.25,62.75,3528000
61.8579216003418,64.30000305175781,2013-02-01 14:30:00,64.3949966430664,62.494998931884766,63.31999969482422,3367000
61.22780227661133,63.64500045776367,2013-02-04 14:30:00,63.89500045776367,63.29999923706055,63.834999084472656,2681200
61.96375274658203,64.41000366210938,2013-02-05 14:30:00,64.63500213623047,63.95000076293945,64.32499694824219,2044400
62.37260437011719,64.83499908447266,2013-02-06 14:30:00,64.95999908447266,63.76499938964844,63.8650016784668,1729400
62.42071533203125,64.88500213623047,2013-02-07 14:30:00,65.05500030517578,64.0250015258789,64.86000061035156,2315800
64.10903930664062,66.63999938964844,2013-02-08 14:30:00,66.69499969482422,65.06999969482422,65.06999969482422,3602200
64.13792419433594,66.66999816894531,2013-02-11 14:30:00,66.83999633789062,66.05999755859375,66.6449966430664,3396200
64.50348663330078,67.05000305175781,2013-02-12 14:30:00,67.34500122070312,66.4000015258789,66.75,3462400
64.26297760009766,66.80000305175781,2013-02-13 14:30:00,67.19999694824219,66.3499984741211,67.05000305175781,3178000
64.13310241699219,66.66500091552734,2013-02-14 14:30:00,69.0999984741211,66.54000091552734,69.03500366210938,5912000
62.14171600341797,64.59500122070312,2013-02-15 14:30:00,67.0,63.88999938964844,66.62999725341797,6343200
63.20475769042969,65.69999694824219,2013-02-19 14:30:00,65.79000091552734,65.0199966430664,65.27999877929688,3935400
61.27589797973633,63.69499969482422,2013-02-20 14:30:00,65.87000274658203,63.65999984741211,65.71499633789062,4943600
59.66451644897461,62.02000045776367,2013-02-21 14:30:00,63.529998779296875,61.775001525878906,63.244998931884766,5828200
60.289825439453125,62.66999816894531,2013-02-22 14:30:00,62.91999816894531,61.845001220703125,62.5,4546200
58.5726203918457,60.8849983215332,2013-02-25 14:30:00,63.47999954223633,60.82500076293945,62.834999084472656,5190600
59.404762268066406,61.75,2013-02-26 14:30:00,61.92499923706055,60.380001068115234,61.185001373291016,3928600
61.04982376098633,63.459999084472656,2013-02-27 14:30:00,63.564998626708984,61.3849983215332,61.55500030517578,4719000
60.467811584472656,62.85499954223633,2013-02-28 14:30:00,63.97999954223633,62.79999923706055,63.220001220703125,4326200
59.16426086425781,61.5,2013-03-01 14:30:00,62.67499923706055,61.1150016784668,62.31999969482422,5727000
58.58224105834961,60.89500045776367,2013-03-04 14:30:00,61.439998626708984,60.5,61.38999938964844,3752200
59.98197555541992,62.349998474121094,2013-03-05 14:30:00,62.525001525878906,61.209999084472656,61.540000915527344,3915600
60.41489028930664,62.79999923706055,2013-03-06 14:30:00,62.974998474121094,62.15999984741211,62.59000015258789,4088800
61.3576774597168,63.779998779296875,2013-03-07 14:30:00,64.11499786376953,62.685001373291016,62.875,2442600
61.89640426635742,64.33999633789062,2013-03-08 14:30:00,64.45999908447266,63.744998931884766,64.09500122070312,2449200
61.88678741455078,64.33000183105469,2013-03-11 13:30:00,64.68499755859375,63.70500183105469,64.16500091552734,2084000
62.5698127746582,65.04000091552734,2013-03-12 13:30:00,65.19999694824219,64.55999755859375,64.75,2585600
62.4736213684082,64.94000244140625,2013-03-13 13:30:00,65.58999633789062,64.74500274658203,65.0,2634800
63.41157913208008,65.91500091552734,2013-03-14 13:30:00,66.00499725341797,65.13500213623047,65.24500274658203,2847800
62.73336410522461,65.20999908447266,2013-03-15 13:30:00,66.41999816894531,65.20500183105469,65.73500061035156,4972200
62.01665496826172,64.46499633789062,2013-03-18 13:30:00,65.20999908447266,64.16000366210938,64.45500183105469,2773400
61.218177795410156,63.6349983215332,2013-03-19 13:30:00,64.76000213623047,63.35499954223633,64.55000305175781,2513600
60.72273635864258,63.119998931884766,2013-03-20 13:30:00,64.4000015258789,63.084999084472656,64.18000030517578,3784800
59.59717559814453,61.95000076293945,2013-03-21 13:30:00,63.42499923706055,61.92499923706055,62.6349983215332,4030200
60.116676330566406,62.4900016784668,2013-03-22 13:30:00,62.53499984741211,61.810001373291016,62.220001220703125,2790400
59.60679626464844,61.959999084472656,2013-03-25 13:30:00,63.400001525878906,61.51499938964844,62.8849983215332,3087000
62.00223159790039,64.44999694824219,2013-03-26 13:30:00,64.69499969482422,62.185001373291016,62.2400016784668,4865200
61.665523529052734,64.0999984741211,2013-03-27 13:30:00,64.33499908447266,63.095001220703125,63.94499969482422,3713800
61.60298156738281,64.03500366210938,2013-03-28 13:30:00,64.57499694824219,63.71500015258789,64.08499908447266,3039400
61.81462860107422,64.25499725341797,2013-04-01 13:30:00,64.41500091552734,63.314998626708984,64.03500366210938,2257400
62.07439041137695,64.5250015258789,2013-04-02 13:30:00,65.0250015258789,64.0199966430664,64.4000015258789,3105200
60.655391693115234,63.04999923706055,2013-04-03 13:30:00,64.70999908447266,62.875,64.5250015258789,3335400
59.096927642822266,61.43000030517578,2013-04-04 13:30:00,63.03499984741211,61.314998626708984,63.03499984741211,4745800
60.00603485107422,62.375,2013-04-05 13:30:00,62.435001373291016,60.380001068115234,60.5,4256400
61.035396575927734,63.44499969482422,2013-04-08 13:30:00,63.61000061035156,62.26499938964844,62.44499969482422,2525200
61.689571380615234,64.125,2013-04-09 13:30:00,64.6050033569336,63.099998474121094,63.53499984741211,2289400
61.86753845214844,64.30999755859375,2013-04-10 13:30:00,65.0999984741211,64.23999786376953,64.27999877929688,2723000
61.694374084472656,64.12999725341797,2013-04-11 13:30:00,64.83000183105469,63.86000061035156,64.50499725341797,2956800
59.88288116455078,62.064998626708984,2013-04-12 13:30:00,63.900001525878906,62.005001068115234,63.650001525878906,4050600
56.05247497558594,58.095001220703125,2013-04-15 13:30:00,61.185001373291016,58.064998626708984,61.18000030517578,5775400
57.480430603027344,59.57500076293945,2013-04-16 13:30:00,59.81999969482422,57.90999984741211,58.915000915527344,4537000
55.39155578613281,57.40999984741211,2013-04-17 13:30:00,58.93000030517578,56.72999954223633,58.70500183105469,6131200
55.6279411315918,57.654998779296875,2013-04-18 13:30:00,57.97999954223633,56.025001525878906,57.69499969482422,6903800
54.725807189941406,56.720001220703125,2013-04-19 13:30:00,58.13999938964844,56.46500015258789,58.08000183105469,4954200
56.15378189086914,58.20000076293945,2013-04-22 13:30:00,58.40999984741211,56.755001068115234,56.974998474121094,4329000
56.44322204589844,58.5,2013-04-23 13:30:00,58.689998626708984,57.6349983215332,58.45000076293945,4435600
57.85671615600586,59.96500015258789,2013-04-24 13:30:00,60.224998474121094,58.5,58.52000045776367,3838000
58.78779220581055,60.93000030517578,2013-04-25 13:30:00,61.76499938964844,59.68000030517578,60.08000183105469,4523000
57.46596145629883,59.560001373291016,2013-04-26 13:30:00,60.95500183105469,59.5,60.849998474121094,4676200
58.821571350097656,60.96500015258789,2013-04-29 13:30:00,61.36000061035156,59.939998626708984,60.25,2326800
58.45009994506836,60.58000183105469,2013-04-30 13:30:00,61.369998931884766,60.29499816894531,60.900001525878906,3567800
57.32605743408203,59.415000915527344,2013-05-01 13:30:00,60.19499969482422,58.880001068115234,60.19499969482422,3678600
57.731285095214844,59.834999084472656,2013-05-02 13:30:00,60.130001068115234,59.0,59.625,3080400
59.81052017211914,61.9900016784668,2013-05-03 13:30:00,62.099998474121094,60.70000076293945,60.70000076293945,4339000
60.80431365966797,63.02000045776367,2013-05-06 13:30:00,63.3650016784668,61.630001068115234,62.29999923706055,5604800
65.45967102050781,67.84500122070312,2013-05-07 13:30:00,68.9800033569336,66.4800033569336,66.8949966430664,10445000
66.52581787109375,68.94999694824219,2013-05-08 13:30:00,69.38999938964844,67.95999908447266,68.0199966430664,6426200
65.64781951904297,68.04000091552734,2013-05-09 13:30:00,69.5,67.76499938964844,69.40499877929688,5611400
64.44176483154297,66.79000091552734,2013-05-10 13:30:00,67.74500274658203,65.8499984741211,67.74500274658203,4896400
64.48038482666016,66.83000183105469,2013-05-13 13:30:00,67.2699966430664,66.15499877929688,66.41000366210938,3208800
65.93243408203125,68.33499908447266,2013-05-14 13:30:00,68.48500061035156,66.91000366210938,67.0,3957800
64.97724151611328,67.34500122070312,2013-05-15 13:30:00,68.81999969482422,67.0250015258789,68.24500274658203,4216200
64.26810455322266,66.61000061035156,2013-05-16 13:30:00,67.45999908447266,66.37000274658203,67.25499725341797,3958800
65.2474136352539,67.625,2013-05-17 13:30:00,67.94499969482422,66.75499725341797,66.9000015258789,5239200
65.42108917236328,67.80500030517578,2013-05-20 13:30:00,68.57499694824219,67.43499755859375,67.68499755859375,4074400
64.77945709228516,67.13999938964844,2013-05-21 13:30:00,68.13500213623047,67.0250015258789,67.88999938964844,2490200
63.1633415222168,65.46499633789062,2013-05-22 13:30:00,67.76499938964844,64.91000366210938,67.08000183105469,4040000
63.390098571777344,65.69999694824219,2013-05-23 13:30:00,65.81999969482422,64.11499786376953,64.48500061035156,3610600
63.115108489990234,65.41500091552734,2013-05-24 13:30:00,65.4749984741211,64.31500244140625,64.86499786376953,2411000
63.2550048828125,65.55999755859375,2013-05-28 13:30:00,66.625,64.75499725341797,66.2300033569336,3505800
64.0799560546875,66.41500091552734,2013-05-29 13:30:00,66.70999908447266,65.05999755859375,65.16999816894531,3149600
64.01240539550781,66.34500122070312,2013-05-30 13:30:00,66.97000122070312,65.44999694824219,66.16500091552734,2435200
62.28050994873047,64.55000305175781,2013-05-31 13:30:00,66.30000305175781,64.54499816894531,65.86499786376953,3438200
63.55892562866211,65.875,2013-06-03 13:30:00,66.06500244140625,64.86000061035156,65.07499694824219,2904200
63.7567253112793,66.08000183105469,2013-06-04 13:30:00,66.31999969482422,65.16500091552734,65.73500061035156,3553000
62.0007209777832,64.26000213623047,2013-06-05 13:30:00,65.98500061035156,64.24500274658203,65.83000183105469,2890800
63.02345657348633,65.31999969482422,2013-06-06 13:30:00,65.32499694824219,63.7599983215332,64.45500183105469,2992600
64.007568359375,66.33999633789062,2013-06-07 13:30:00,66.82499694824219,65.0999984741211,65.55000305175781,2235600
63.496219635009766,65.80999755859375,2013-06-10 13:30:00,66.30000305175781,65.57499694824219,66.16500091552734,1533600
62.285335540771484,64.55500030517578,2013-06-11 13:30:00,65.16000366210938,64.12000274658203,64.6449966430664,2794600
62.53620529174805,64.81500244140625,2013-06-12 13:30:00,65.88500213623047,64.73999786376953,65.62999725341797,2709400
64.3211669921875,66.66500091552734,2013-06-13 13:30:00,66.75,64.67500305175781,64.83999633789062,3135000
63.55412673950195,65.87000274658203,2013-06-14 13:30:00,66.80500030517578,65.56500244140625,66.80500030517578,2687800
64.3211669921875,66.66500091552734,2013-06-17 13:30:00,67.16999816894531,66.08000183105469,66.5999984741211,2379400
65.13646697998047,67.51000213623047,2013-06-18 13:30:00,67.9800033569336,66.56999969482422,66.75,2800400
65.41141510009766,67.79499816894531,2013-06-19 13:30:00,68.99500274658203,67.38999938964844,67.48500061035156,3409000
63.192298889160156,65.49500274658203,2013-06-20 13:30:00,66.94499969482422,64.8949966430664,66.86000061035156,4397600
62.90766525268555,65.19999694824219,2013-06-21 13:30:00,66.19999694824219,64.28500366210938,66.12000274658203,4786600
61.46522521972656,63.70500183105469,2013-06-24 13:30:00,64.7300033569336,62.26499938964844,64.44499969482422,3962200
62.787052154541016,65.07499694824219,2013-06-25 13:30:00,65.55000305175781,64.11000061035156,64.51000213623047,3441000
63.607177734375,65.92500305175781,2013-06-26 13:30:00,66.2750015258789,64.76499938964844,65.59500122070312,2504600
63.20194625854492,65.50499725341797,2013-06-27 13:30:00,67.04000091552734,65.36000061035156,66.58000183105469,3610800
63.52516174316406,65.83999633789062,2013-06-28 13:30:00,66.49500274658203,65.01000213623047,65.21499633789062,3424400
65.27635192871094,67.65499877929688,2013-07-01 13:30:00,68.21499633789062,66.62000274658203,66.8949966430664,3230400
66.51618957519531,68.94000244140625,2013-07-02 13:30:00,69.63500213623047,67.62000274658203,67.62000274658203,4339200
66.66089630126953,69.08999633789062,2013-07-03 13:30:00,69.25,68.40499877929688,69.0,1707400
67.73187255859375,70.19999694824219,2013-07-05 13:30:00,70.31999969482422,69.31500244140625,69.52999877929688,2281000
67.42312622070312,69.87999725341797,2013-07-08 13:30:00,71.26499938964844,69.50499725341797,70.75,3429400
68.6098861694336,71.11000061035156,2013-07-09 13:30:00,71.23500061035156,70.19499969482422,70.4749984741211,3547400
68.6340103149414,71.13500213623047,2013-07-10 13:30:00,71.83999633789062,70.81500244140625,71.34500122070312,3534000
69.25150299072266,71.7750015258789,2013-07-11 13:30:00,73.3949966430664,71.44499969482422,72.0,5601400
69.81111145019531,72.3550033569336,2013-07-12 13:30:00,72.38500213623047,70.95500183105469,71.55000305175781,3772200
69.42659759521484,71.7699966430664,2013-07-15 13:30:00,72.80999755859375,71.29499816894531,72.31500244140625,3459200
69.91993713378906,72.27999877929688,2013-07-16 13:30:00,72.7699966430664,71.875,71.88999938964844,3735400
70.5342025756836,72.91500091552734,2013-07-17 13:30:00,73.20999908447266,72.32499694824219,72.5250015258789,2746000
71.10010528564453,73.5,2013-07-18 13:30:00,74.13500213623047,73.11000061035156,73.20999908447266,3070600
71.9078369140625,74.33499908447266,2013-07-19 13:30:00,74.3499984741211,73.25499725341797,73.90499877929688,2742200
72.30445861816406,74.74500274658203,2013-07-22 13:30:00,75.0250015258789,73.7699966430664,74.31500244140625,3240800
71.893310546875,74.31999969482422,2013-07-23 13:30:00,74.98999786376953,74.00499725341797,74.80999755859375,3264600
69.68293762207031,72.03500366210938,2013-07-24 13:30:00,74.56999969482422,71.58000183105469,74.54499816894531,6075800
71.279052734375,73.68499755859375,2013-07-25 13:30:00,73.69999694824219,72.0,72.03500366210938,3925000
70.49067687988281,72.87000274658203,2013-07-26 13:30:00,73.36000061035156,72.12000274658203,73.12000274658203,2974400
69.99249267578125,72.3550033569336,2013-07-29 13:30:00,72.76000213623047,71.93499755859375,72.66000366210938,1627400
69.69745635986328,72.05000305175781,2013-07-30 13:30:00,72.88999938964844,70.7750015258789,72.5250015258789,3268400
70.3697509765625,72.74500274658203,2013-07-31 13:30:00,74.08499908447266,72.30999755859375,72.30999755859375,3469400
73.55232238769531,76.03500366210938,2013-08-01 13:30:00,76.45500183105469,73.78500366210938,73.78500366210938,3991600
74.01665496826172,76.51499938964844,2013-08-02 13:30:00,76.6050033569336,75.125,75.37999725341797,2813200
74.5728759765625,77.08999633789062,2013-08-05 13:30:00,77.5199966430664,76.07499694824219,76.47000122070312,3574000
74.10855102539062,76.61000061035156,2013-08-06 13:30:00,77.45500183105469,75.65499877929688,77.05000305175781,4948800
75.55958557128906,78.11000061035156,2013-08-07 13:30:00,80.73500061035156,77.6449966430664,80.15499877929688,9410200
76.7010498046875,79.29000091552734,2013-08-08 13:30:00,80.125,78.15499877929688,78.93000030517578,4722600
76.82678985595703,79.41999816894531,2013-08-09 13:30:00,79.98500061035156,79.0,79.33000183105469,3664400
76.78810119628906,79.37999725341797,2013-08-12 13:30:00,80.2249984741211,78.7300033569336,79.08000183105469,4004400
76.53659057617188,79.12000274658203,2013-08-13 13:30:00,79.57499694824219,78.37999725341797,79.5,2282600
75.64662170410156,78.19999694824219,2013-08-14 13:30:00,79.44999694824219,78.05999755859375,79.05999755859375,2548200
75.738525390625,78.29499816894531,2013-08-15 13:30:00,78.88999938964844,77.1449966430664,77.7699966430664,2551400
75.20650482177734,77.74500274658203,2013-08-16 13:30:00,78.44499969482422,77.15499877929688,77.76499938964844,2502000
73.85218811035156,76.34500122070312,2013-08-19 13:30:00,78.05999755859375,76.2699966430664,77.76000213623047,2752800
74.78569030761719,77.30999755859375,2013-08-20 13:30:00,77.94499969482422,76.08000183105469,76.3499984741211,2395400
73.44107055664062,75.91999816894531,2013-08-21 13:30:00,77.18499755859375,75.69499969482422,77.18499755859375,2361200
74.67929077148438,77.19999694824219,2013-08-22 13:30:00,77.68000030517578,76.2249984741211,76.36499786376953,1463000
75.75303649902344,78.30999755859375,2013-08-23 13:30:00,78.3949966430664,76.7699966430664,77.19999694824219,2084200
75.99005126953125,78.55500030517578,2013-08-26 13:30:00,79.80500030517578,78.41500091552734,78.62999725341797,2204200
75.59342193603516,78.1449966430664,2013-08-27 13:30:00,79.27999877929688,78.0,78.08000183105469,2267600
77.12667083740234,79.7300033569336,2013-08-28 13:30:00,80.66000366210938,78.41500091552734,78.47000122070312,3517800
75.98035430908203,78.54499816894531,2013-08-29 13:30:00,79.6500015258789,78.33999633789062,79.36499786376953,1990800
75.96105194091797,78.5250015258789,2013-08-30 13:30:00,79.16000366210938,78.1449966430664,78.75,2166200
76.62847900390625,79.21499633789062,2013-09-03 13:30:00,80.24500274658203,78.5250015258789,79.7300033569336,2207600
77.64421844482422,80.26499938964844,2013-09-04 13:30:00,80.50499725341797,78.74500274658203,78.74500274658203,2611800
78.07950592041016,80.71499633789062,2013-09-05 13:30:00,81.30999755859375,80.4749984741211,80.61000061035156,1967800
78.21977233886719,80.86000061035156,2013-09-06 13:30:00,82.16500091552734,80.29000091552734,81.28500366210938,3772400
79.15328216552734,81.82499694824219,2013-09-09 13:30:00,82.0,81.08499908447266,81.55000305175781,3747000
79.08071899414062,81.75,2013-09-10 13:30:00,82.36000061035156,80.46499633789062,81.75,3420600
80.84612274169922,83.57499694824219,2013-09-11 13:30:00,83.68499755859375,81.41999816894531,81.7249984741211,3613400
81.25242614746094,83.99500274658203,2013-09-12 13:30:00,84.38500213623047,83.5,83.7699966430664,3130200
80.5027084350586,83.22000122070312,2013-09-13 13:30:00,84.06999969482422,83.05000305175781,83.875,2089400
80.19317626953125,82.9000015258789,2013-09-16 13:30:00,83.99500274658203,82.54000091552734,83.7699966430664,2466600
81.14602661132812,83.88500213623047,2013-09-17 13:30:00,84.18000030517578,82.8949966430664,83.25499725341797,2069800
83.09038543701172,85.8949966430664,2013-09-18 13:30:00,86.18000030517578,83.5999984741211,83.62999725341797,2870200
82.57768249511719,85.36499786376953,2013-09-19 13:30:00,86.40499877929688,84.67500305175781,86.05000305175781,2122000
81.67805480957031,84.43499755859375,2013-09-20 13:30:00,85.76499938964844,84.26499938964844,85.25,3677400
81.67321014404297,84.43000030517578,2013-09-23 13:30:00,84.8550033569336,84.05500030517578,84.28500366210938,2652000
83.23545837402344,86.04499816894531,2013-09-24 13:30:00,86.95999908447266,84.30999755859375,84.70500183105469,4233600
82.89208221435547,85.69000244140625,2013-09-25 13:30:00,86.6449966430664,85.36499786376953,86.04499816894531,3507400
83.23545837402344,86.04499816894531,2013-09-26 13:30:00,86.08499908447266,84.91000366210938,85.86000061035156,1933600
82.57768249511719,85.36499786376953,2013-09-27 13:30:00,85.83000183105469,84.9000015258789,85.61499786376953,1660600
81.87635803222656,84.63999938964844,2013-09-30 13:30:00,85.16999816894531,83.55999755859375,83.77999877929688,2593800
83.26451110839844,86.07499694824219,2013-10-01 13:30:00,86.41500091552734,84.2750015258789,84.30500030517578,2809200
83.36608123779297,86.18000030517578,2013-10-02 13:30:00,86.18000030517578,84.58999633789062,85.93499755859375,2717600
83.09522247314453,85.9000015258789,2013-10-03 13:30:00,86.11499786376953,84.99500274658203,85.9749984741211,2515400
84.44465637207031,87.29499816894531,2013-10-04 13:30:00,87.43000030517578,85.2699966430664,85.95999908447266,3206400
83.5934066772461,86.41500091552734,2013-10-07 13:30:00,87.1050033569336,85.625,86.1050033569336,3423800
82.93079376220703,85.7300033569336,2013-10-08 13:30:00,87.32499694824219,85.20500183105469,86.16999816894531,3545000
82.95978546142578,85.76000213623047,2013-10-09 13:30:00,86.77999877929688,84.80000305175781,86.16500091552734,3839600
84.57526397705078,87.43000030517578,2013-10-10 13:30:00,87.47000122070312,86.47000122070312,86.69499969482422,3032600
86.57282257080078,89.49500274658203,2013-10-11 13:30:00,90.4749984741211,87.125,87.16000366210938,3899800
87.57403564453125,90.52999877929688,2013-10-14 13:30:00,90.54000091552734,88.16500091552734,88.68000030517578,2461200
87.22748565673828,89.98500061035156,2013-10-15 13:30:00,90.98999786376953,89.5,90.125,3037000
88.35194396972656,91.1449966430664,2013-10-16 13:30:00,92.93499755859375,90.73500061035156,91.23999786376953,4577200
87.91575622558594,90.69499969482422,2013-10-17 13:30:00,91.19999694824219,89.6500015258789,90.83999633789062,4643400
89.0789566040039,91.8949966430664,2013-10-18 13:30:00,92.08499908447266,90.41999816894531,91.33000183105469,4302000
89.33585357666016,92.16000366210938,2013-10-21 13:30:00,92.75,91.32499694824219,91.5,2405000
89.73812103271484,92.57499694824219,2013-10-22 13:30:00,94.1500015258789,91.79000091552734,93.3949966430664,3930000
86.48593139648438,89.22000122070312,2013-10-23 13:30:00,91.55999755859375,88.25499725341797,91.55999755859375,5441400
87.93511962890625,90.71499633789062,2013-10-24 13:30:00,91.28500366210938,88.05500030517578,89.02999877929688,4082000
88.9093246459961,91.72000122070312,2013-10-25 13:30:00,92.04499816894531,90.6449966430664,91.17500305175781,2583800
88.4149398803711,91.20999908447266,2013-10-28 13:30:00,91.94999694824219,90.94000244140625,91.91500091552734,1835000
89.7042007446289,92.54000091552734,2013-10-29 13:30:00,92.88500213623047,91.15499877929688,91.43499755859375,2861800
87.4019775390625,90.16500091552734,2013-10-30 13:30:00,93.42500305175781,89.44499969482422,93.16000366210938,3915000
86.46654510498047,89.19999694824219,2013-10-31 13:30:00,90.45500183105469,88.3550033569336,89.98999786376953,3954400
86.74766540527344,89.48999786376953,2013-11-01 13:30:00,90.01499938964844,87.69999694824219,89.30500030517578,3633200
88.91903686523438,91.7300033569336,2013-11-04 14:30:00,91.80000305175781,89.86499786376953,90.23500061035156,2737200
87.11116790771484,89.86499786376953,2013-11-05 14:30:00,91.66999816894531,89.76000213623047,91.66999816894531,3686200
85.61351776123047,88.31999969482422,2013-11-06 14:30:00,91.44999694824219,87.97000122070312,90.66500091552734,4666800
83.16106414794922,85.79000091552734,2013-11-07 14:30:00,90.12000274658203,82.5250015258789,89.65499877929688,9039000
82.86054992675781,85.4800033569336,2013-11-08 14:30:00,86.62999725341797,85.27999877929688,85.55999755859375,5577800
83.09803771972656,85.7249984741211,2013-11-11 14:30:00,85.81999969482422,84.81500244140625,85.6050033569336,3293200
80.98968505859375,83.55000305175781,2013-11-12 14:30:00,85.54000091552734,82.9000015258789,85.3499984741211,4579200
82.13355255126953,84.7300033569336,2013-11-13 14:30:00,84.93000030517578,82.8949966430664,83.22000122070312,4713200
82.23532104492188,84.83499908447266,2013-11-14 14:30:00,85.04000091552734,83.9749984741211,84.74500274658203,3690600
83.0641098022461,85.69000244140625,2013-11-15 14:30:00,86.06999969482422,83.94000244140625,85.13999938964844,4322400
81.67794036865234,84.26000213623047,2013-11-18 14:30:00,86.0999984741211,83.73500061035156,85.75,3032000
81.37256622314453,83.94499969482422,2013-11-19 14:30:00,84.73500061035156,82.82499694824219,84.05999755859375,3115400
80.9024429321289,83.45999908447266,2013-11-20 14:30:00,84.87999725341797,83.1050033569336,84.42500305175781,3010600
82.06083679199219,84.65499877929688,2013-11-21 14:30:00,84.9800033569336,83.9000015258789,84.05999755859375,3079200
82.46794128417969,85.07499694824219,2013-11-22 14:30:00,85.20500183105469,83.67500305175781,85.0999984741211,2536600
82.00267028808594,84.59500122070312,2013-11-25 14:30:00,84.68499755859375,82.83499908447266,84.66000366210938,3777800
82.00751495361328,84.5999984741211,2013-11-26 14:30:00,85.73999786376953,83.8499984741211,84.67500305175781,3180400
80.66494750976562,83.21499633789062,2013-11-27 14:30:00,84.84500122070312,82.76000213623047,84.46499633789062,3360200
79.97187042236328,82.5,2013-11-29 14:30:00,83.55500030517578,82.09500122070312,83.25,2248400
79.97187042236328,82.5,2013-12-02 14:30:00,83.2750015258789,81.56500244140625,83.0,3034400
80.20450592041016,82.73999786376953,2013-12-03 14:30:00,83.36499786376953,80.91000366210938,82.2249984741211,4163800
81.00423431396484,83.56500244140625,2013-12-04 14:30:00,84.55500030517578,82.75,82.80000305175781,3751400
80.15605163574219,82.69000244140625,2013-12-05 14:30:00,83.87000274658203,82.08000183105469,82.66999816894531,4473800
77.56786346435547,80.0199966430664,2013-12-06 14:30:00,83.55000305175781,79.94499969482422,83.4749984741211,7343200
76.64698028564453,79.06999969482422,2013-12-09 14:30:00,80.625,78.15499877929688,80.45999908447266,8547400
77.21404266357422,79.65499877929688,2013-12-10 14:30:00,80.97000122070312,79.06999969482422,79.21499633789062,4554400
75.73579406738281,78.12999725341797,2013-12-11 14:30:00,79.56999969482422,78.00499725341797,79.42500305175781,4240000
76.75361633300781,79.18000030517578,2013-12-12 14:30:00,79.66000366210938,78.12000274658203,78.21499633789062,3813000
77.073486328125,79.51000213623047,2013-12-13 14:30:00,79.67500305175781,78.24500274658203,78.83499908447266,4488600
77.42245483398438,79.87000274658203,2013-12-16 14:30:00,80.98500061035156,79.66999816894531,79.66999816894531,4120200
77.37883758544922,79.82499694824219,2013-12-17 14:30:00,80.26000213623047,78.75499725341797,80.26000213623047,3471800
78.51783752441406,81.0,2013-12-18 14:30:00,81.19000244140625,79.16500091552734,79.81999969482422,5965400
80.13180541992188,82.66500091552734,2013-12-19 14:30:00,82.95500183105469,80.58999633789062,80.83499908447266,5073600
81.67794036865234,84.26000213623047,2013-12-20 14:30:00,84.66000366210938,82.7249984741211,83.05999755859375,6265800
81.24172973632812,83.80999755859375,2013-12-23 14:30:00,84.91999816894531,83.41500091552734,84.62999725341797,3028000
81.55191040039062,84.12999725341797,2013-12-24 14:30:00,84.13500213623047,83.11499786376953,83.91000366210938,978200
81.43560028076172,84.01000213623047,2013-12-26 14:30:00,84.7699966430664,83.83499908447266,84.2300033569336,1772200
81.98812866210938,84.58000183105469,2013-12-27 14:30:00,84.73999786376953,83.83999633789062,84.06999969482422,1685200
81.11087036132812,83.67500305175781,2013-12-30 14:30:00,85.25,83.0999984741211,84.4749984741211,2811400
81.34834289550781,83.91999816894531,2013-12-31 14:30:00,84.42500305175781,83.23500061035156,83.66999816894531,2109800
79.98155975341797,82.51000213623047,2014-01-02 14:30:00,83.9800033569336,82.02999877929688,83.28500366210938,2943400
79.75860595703125,82.27999877929688,2014-01-03 14:30:00,83.32499694824219,81.90499877929688,82.875,2693800
79.49687957763672,82.01000213623047,2014-01-06 14:30:00,82.66500091552734,81.16999816894531,82.38500213623047,3649200
80.86851501464844,83.42500305175781,2014-01-07 14:30:00,83.45500183105469,81.8550033569336,82.53500366210938,3286800
80.83458709716797,83.38999938964844,2014-01-08 14:30:00,83.91500091552734,82.5250015258789,83.01000213623047,2857800
80.94122314453125,83.5,2014-01-09 14:30:00,84.44499969482422,82.73999786376953,83.70500183105469,3539400
80.84912872314453,83.40499877929688,2014-01-10 14:30:00,84.05000305175781,82.99500274658203,83.7300033569336,2949800
79.22545623779297,81.7300033569336,2014-01-13 14:30:00,84.13500213623047,81.48500061035156,83.70500183105469,2672600
81.71671295166016,84.30000305175781,2014-01-14 14:30:00,84.36499786376953,81.81500244140625,82.02999877929688,3221800
82.75379943847656,85.18000030517578,2014-01-15 14:30:00,86.63999938964844,84.69999694824219,84.7300033569336,4088800
82.62751007080078,85.05000305175781,2014-01-16 14:30:00,85.58499908447266,84.3499984741211,85.05000305175781,3342400
82.07373046875,84.4800033569336,2014-01-17 14:30:00,85.94000244140625,84.45999908447266,85.4800033569336,3325800
82.20487976074219,84.61499786376953,2014-01-21 14:30:00,85.2750015258789,84.06999969482422,84.58000183105469,3195000
83.41444396972656,85.86000061035156,2014-01-22 14:30:00,86.1500015258789,84.625,85.0999984741211,3588600
82.17577362060547,84.58499908447266,2014-01-23 14:30:00,85.87000274658203,84.11499786376953,84.88999938964844,4482800
80.40757751464844,82.76499938964844,2014-01-24 14:30:00,84.5199966430664,82.55999755859375,84.0250015258789,5645400
78.74142456054688,81.05000305175781,2014-01-27 14:30:00,82.74500274658203,80.62999725341797,82.58499908447266,3806000
81.228515625,83.61000061035156,2014-01-28 14:30:00,83.75,81.1449966430664,81.69000244140625,3292600
79.98009490966797,82.32499694824219,2014-01-29 14:30:00,83.08000183105469,81.7699966430664,82.95999908447266,3280400
80.69904327392578,83.06500244140625,2014-01-30 14:30:00,83.75,82.32499694824219,82.55000305175781,2263000
80.26671600341797,82.62000274658203,2014-01-31 14:30:00,83.80000305175781,81.58999633789062,82.33499908447266,2639600
78.56656646728516,80.87000274658203,2014-02-03 14:30:00,83.43000030517578,80.75,82.30500030517578,4528800
81.88914489746094,84.29000091552734,2014-02-04 14:30:00,84.49500274658203,81.25,81.33499908447266,6576800
81.35967254638672,83.74500274658203,2014-02-05 14:30:00,84.8499984741211,83.38500213623047,84.05000305175781,4293000
84.15765380859375,86.625,2014-02-06 14:30:00,86.8949966430664,83.84500122070312,83.84500122070312,5142200
85.73636627197266,88.25,2014-02-07 14:30:00,88.44000244140625,86.56999969482422,87.38500213623047,4170600
84.61911010742188,87.0999984741211,2014-02-10 14:30:00,88.37999725341797,86.53500366210938,88.37999725341797,3538200
84.8765640258789,87.36499786376953,2014-02-11 14:30:00,88.1050033569336,86.77999877929688,87.1500015258789,3298800
85.06116485595703,87.55500030517578,2014-02-12 14:30:00,88.44999694824219,87.24500274658203,87.875,2585000
85.23603057861328,87.73500061035156,2014-02-13 14:30:00,88.375,86.30000305175781,86.79000091552734,3432600
85.95980834960938,88.4800033569336,2014-02-14 14:30:00,88.625,87.44499969482422,87.8550033569336,2337600
87.39764404296875,89.95999908447266,2014-02-18 14:30:00,90.12999725341797,89.00499725341797,89.05999755859375,3654600
86.88273620605469,89.43000030517578,2014-02-19 14:30:00,90.80500030517578,89.19999694824219,89.5250015258789,3835000
87.45108032226562,90.01499938964844,2014-02-20 14:30:00,91.02999877929688,89.07499694824219,89.5199966430664,4512000
86.46499633789062,89.0,2014-02-21 14:30:00,90.48500061035156,88.97000122070312,90.23500061035156,5410800
87.63081359863281,90.19999694824219,2014-02-24 14:30:00,90.80999755859375,88.51499938964844,89.21499633789062,7053200
89.37954711914062,92.0,2014-02-25 14:30:00,92.56500244140625,89.625,91.42500305175781,7461200
90.56481170654297,93.22000122070312,2014-02-26 14:30:00,94.20500183105469,91.44000244140625,91.80500030517578,7214400
91.06513977050781,93.73500061035156,2014-02-27 14:30:00,93.82499694824219,92.24500274658203,93.20500183105469,3779600
92.01235961914062,94.70999908447266,2014-02-28 14:30:00,95.54000091552734,93.55500030517578,93.86000061035156,5076400
91.94920349121094,94.6449966430664,2014-03-03 14:30:00,96.0,94.30999755859375,94.5250015258789,5608400
93.05187225341797,95.77999877929688,2014-03-04 14:30:00,96.45999908447266,95.16500091552734,95.23500061035156,4265400
92.5321273803711,95.24500274658203,2014-03-05 14:30:00,96.61000061035156,95.0250015258789,96.0199966430664,3900800
92.80899810791016,95.52999877929688,2014-03-06 14:30:00,96.1050033569336,94.66500091552734,95.36000061035156,3450600
92.2552261352539,94.95999908447266,2014-03-07 14:30:00,95.9749984741211,94.0999984741211,95.76000213623047,3917200
91.83263397216797,94.5250015258789,2014-03-10 13:30:00,94.95999908447266,93.55999755859375,94.95999908447266,2759200
90.1567611694336,92.80000305175781,2014-03-11 13:30:00,95.08499908447266,92.66000366210938,94.91999816894531,4103200
89.92845153808594,92.56500244140625,2014-03-12 13:30:00,93.21499633789062,90.83000183105469,91.80000305175781,4087600
88.85008239746094,91.45500183105469,2014-03-13 13:30:00,93.32499694824219,90.88500213623047,93.125,3763800
90.33649444580078,92.98500061035156,2014-03-14 13:30:00,93.1050033569336,91.44999694824219,91.48500061035156,3178400
90.94853973388672,93.61499786376953,2014-03-17 13:30:00,94.0,93.0,93.30000305175781,2722400
91.88606262207031,94.58000183105469,2014-03-18 13:30:00,95.26000213623047,93.58999633789062,93.69999694824219,3166000
91.09426879882812,93.76499938964844,2014-03-19 13:30:00,94.72000122070312,93.01499938964844,94.67500305175781,3165000
92.45439910888672,95.16500091552734,2014-03-20 13:30:00,95.27999877929688,93.03500366210938,93.80999755859375,4022400
93.09073638916016,95.81999969482422,2014-03-21 13:30:00,96.58000183105469,94.69000244140625,95.95500183105469,5331800
92.09980010986328,94.80000305175781,2014-03-24 13:30:00,96.48500061035156,94.2300033569336,96.125,3461600
93.0567398071289,95.78500366210938,2014-03-25 13:30:00,96.48500061035156,95.44999694824219,95.58999633789062,3816400
93.32390594482422,96.05999755859375,2014-03-26 13:30:00,97.66000366210938,95.94999694824219,96.2750015258789,4117200
93.97481536865234,96.7300033569336,2014-03-27 13:30:00,97.69999694824219,96.01000213623047,96.1449966430664,3528200
95.7721176147461,98.58000183105469,2014-03-28 13:30:00,99.41000366210938,97.05500030517578,97.23500061035156,4051000
95.29122161865234,98.08499908447266,2014-03-31 13:30:00,99.75,97.5250015258789,99.23500061035156,8285600
96.16073608398438,98.9800033569336,2014-04-01 13:30:00,100.36000061035156,98.26000213623047,99.37999725341797,3422900
96.28703308105469,99.11000061035156,2014-04-02 13:30:00,99.44999694824219,98.0199966430664,98.2699966430664,2858000
97.78315734863281,100.6500015258789,2014-04-03 13:30:00,101.5,99.26000213623047,99.33000183105469,5219000
96.92822265625,99.7699966430664,2014-04-04 13:30:00,103.30000305175781,98.94999694824219,102.66999816894531,4028600
95.14064025878906,97.93000030517578,2014-04-07 13:30:00,99.9800033569336,97.44999694824219,99.72000122070312,3146300
95.89842987060547,98.70999908447266,2014-04-08 13:30:00,99.58000183105469,97.54000091552734,97.77999877929688,3293600
96.13157653808594,98.94999694824219,2014-04-09 13:30:00,99.16999816894531,97.98999786376953,98.94000244140625,3826700
95.31552124023438,98.11000061035156,2014-04-10 13:30:00,99.98999786376953,97.55999755859375,98.62999725341797,4706000
95.82069396972656,98.62999725341797,2014-04-11 13:30:00,99.44000244140625,97.56999969482422,97.66999816894531,4581500
97.23605346679688,99.95999908447266,2014-04-14 13:30:00,100.0999984741211,98.72000122070312,99.5199966430664,3427800
98.3547134399414,101.11000061035156,2014-04-15 13:30:00,101.68000030517578,99.5199966430664,99.62999725341797,4695400
98.25745391845703,101.01000213623047,2014-04-16 13:30:00,102.19999694824219,100.43000030517578,101.4800033569336,3650900
99.65819549560547,102.44999694824219,2014-04-17 13:30:00,102.83999633789062,100.83999633789062,100.83999633789062,3253200
100.7087631225586,103.52999877929688,2014-04-21 13:30:00,103.58000183105469,101.83999633789062,102.9800033569336,2404700
99.55119323730469,102.33999633789062,2014-04-22 13:30:00,103.2699966430664,102.11000061035156,103.2699966430664,3332800
102.2165298461914,105.08000183105469,2014-04-23 13:30:00,105.18000030517578,102.52999877929688,102.52999877929688,3445700
100.66012573242188,103.4800033569336,2014-04-24 13:30:00,105.5,103.41999816894531,105.5,3716000
96.34111022949219,99.04000091552734,2014-04-25 13:30:00,103.30000305175781,98.5199966430664,103.25,7168000
95.38783264160156,98.05999755859375,2014-04-28 13:30:00,100.0,96.52999877929688,99.94000244140625,5112100
96.90532684326172,99.62000274658203,2014-04-29 13:30:00,101.2300033569336,98.83000183105469,98.87999725341797,4089100
95.3294677734375,98.0,2014-04-30 13:30:00,99.19999694824219,97.01000213623047,99.06999969482422,6297700
94.47344207763672,97.12000274658203,2014-05-01 13:30:00,98.7699966430664,96.80999755859375,98.33000183105469,4240100
94.41506958007812,97.05999755859375,2014-05-02 13:30:00,98.25,96.81999969482422,97.30000305175781,3710900
96.54539489746094,99.25,2014-05-05 13:30:00,99.70999908447266,96.01000213623047,96.04000091552734,4757400
100.8060302734375,103.62999725341797,2014-05-06 13:30:00,106.5,101.83999633789062,102.80000305175781,8515800
101.93443298339844,104.79000091552734,2014-05-07 13:30:00,105.44999694824219,102.63999938964844,104.61000061035156,5705400
98.95782470703125,101.7300033569336,2014-05-08 13:30:00,104.55999755859375,101.62000274658203,104.02999877929688,3264300
99.49282836914062,102.27999877929688,2014-05-09 13:30:00,102.30000305175781,100.63999938964844,102.0,3709500
100.81578063964844,103.63999938964844,2014-05-12 13:30:00,103.7300033569336,101.9800033569336,102.56999969482422,3351800
102.3040771484375,105.16999816894531,2014-05-13 13:30:00,105.5,104.06999969482422,104.58000183105469,3426300
101.06868743896484,103.9000015258789,2014-05-14 13:30:00,105.48999786376953,103.86000061035156,105.38999938964844,2415000
99.94027709960938,102.73999786376953,2014-05-15 13:30:00,103.9800033569336,101.55000305175781,103.97000122070312,2608100
99.70682525634766,102.5,2014-05-16 13:30:00,102.87999725341797,101.33999633789062,102.56999969482422,2846300
99.51229095458984,102.30000305175781,2014-05-19 13:30:00,103.36000061035156,101.95999908447266,102.5,1832600
99.11345672607422,101.88999938964844,2014-05-20 13:30:00,102.94999694824219,101.47000122070312,102.22000122070312,1937500
101.32160186767578,104.16000366210938,2014-05-21 13:30:00,104.36000061035156,102.12999725341797,102.69999694824219,1777500
100.85468292236328,103.68000030517578,2014-05-22 13:30:00,105.16999816894531,103.52999877929688,104.29000091552734,2457100
101.13677978515625,103.97000122070312,2014-05-23 13:30:00,105.1500015258789,103.44000244140625,103.88999938964844,2535000
101.8760757446289,104.7300033569336,2014-05-27 13:30:00,104.97000122070312,103.75,104.44000244140625,2072500
102.32353973388672,105.19000244140625,2014-05-28 13:30:00,105.62999725341797,104.4000015258789,104.86000061035156,2724800
103.7632064819336,106.66999816894531,2014-05-29 13:30:00,106.70999908447266,105.0,105.41999816894531,2565500
102.91690826416016,105.80000305175781,2014-05-30 13:30:00,106.36000061035156,105.25,106.2699966430664,2293300
102.50835418701172,105.37999725341797,2014-06-02 13:30:00,106.0,104.94999694824219,105.94999694824219,1712400
103.75347137451172,106.66000366210938,2014-06-03 13:30:00,106.66000366210938,105.2699966430664,105.44999694824219,1974800
103.47136688232422,106.37000274658203,2014-06-04 13:30:00,106.7300033569336,105.55999755859375,106.4800033569336,1695600
104.9596939086914,107.9000015258789,2014-06-05 13:30:00,107.91000366210938,105.81999969482422,106.3499984741211,2212100
106.34097290039062,109.31999969482422,2014-06-06 13:30:00,109.55999755859375,108.04000091552734,108.13999938964844,2151400
106.52582550048828,109.51000213623047,2014-06-09 13:30:00,110.75,109.0,110.08999633789062,2366300
105.72816467285156,108.69000244140625,2014-06-10 13:30:00,109.75,108.41000366210938,109.38999938964844,2174200
107.68338012695312,110.69999694824219,2014-06-11 13:30:00,110.91000366210938,108.13999938964844,108.25,2683700
108.5880355834961,111.62999725341797,2014-06-12 13:30:00,113.0199966430664,111.22000122070312,111.45999908447266,3799500
110.91291809082031,114.0199966430664,2014-06-13 13:30:00,114.05999755859375,110.52999877929688,111.7699966430664,3126400
110.92262268066406,114.02999877929688,2014-06-16 13:30:00,115.20999908447266,113.0199966430664,115.20999908447266,4075200
109.32733154296875,112.38999938964844,2014-06-17 13:30:00,113.94999694824219,111.26000213623047,113.94999694824219,5247000
110.44600677490234,113.54000091552734,2014-06-18 13:30:00,113.83999633789062,111.73999786376953,112.58000183105469,2912400
112.64441680908203,115.80000305175781,2014-06-19 13:30:00,115.8499984741211,112.5199966430664,113.13999938964844,3865900
114.76499938964844,117.9800033569336,2014-06-20 13:30:00,118.38999938964844,116.1500015258789,117.05000305175781,5556100
114.21054077148438,117.41000366210938,2014-06-23 13:30:00,118.88999938964844,116.94999694824219,118.5199966430664,3328800
109.94017028808594,113.0199966430664,2014-06-24 13:30:00,117.44999694824219,112.23999786376953,117.18000030517578,4574300
112.85840606689453,116.0199966430664,2014-06-25 13:30:00,116.25,113.31999969482422,113.31999969482422,3456700
112.2747802734375,115.41999816894531,2014-06-26 13:30:00,115.81999969482422,114.06999969482422,115.68000030517578,2355100
112.68331909179688,115.83999633789062,2014-06-27 13:30:00,115.93000030517578,114.70999908447266,115.2300033569336,2801600
113.6755142211914,116.86000061035156,2014-06-30 13:30:00,117.19000244140625,115.8499984741211,116.08000183105469,2342000
113.37397003173828,116.55000305175781,2014-07-01 13:30:00,117.94000244140625,116.0199966430664,117.44000244140625,2793600
113.06269836425781,116.2300033569336,2014-07-02 13:30:00,117.58999633789062,115.54000091552734,116.86000061035156,2649800
113.5685043334961,116.75,2014-07-03 13:30:00,117.0199966430664,115.11000061035156,116.2699966430664,1677900
112.5763168334961,115.7300033569336,2014-07-07 13:30:00,116.5,115.41999816894531,116.4000015258789,1574500
112.81950378417969,115.9800033569336,2014-07-08 13:30:00,116.55000305175781,115.12999725341797,115.37000274658203,2511100
113.38370513916016,116.55999755859375,2014-07-09 13:30:00,116.62999725341797,115.19000244140625,116.0999984741211,1938800
111.82730102539062,114.95999908447266,2014-07-10 13:30:00,115.87999725341797,113.76000213623047,114.87999725341797,2212700
110.55299377441406,113.6500015258789,2014-07-11 13:30:00,115.73999786376953,113.38999938964844,115.73999786376953,2482100
112.53740692138672,115.69000244140625,2014-07-14 13:30:00,116.05000305175781,114.30999755859375,114.6500015258789,2956100
110.46809387207031,113.44000244140625,2014-07-15 13:30:00,115.62000274658203,112.63999938964844,114.91000366210938,3367700
114.03218078613281,117.0999984741211,2014-07-16 13:30:00,117.27999877929688,114.16999816894531,114.62000274658203,3181000
112.52279663085938,115.55000305175781,2014-07-17 13:30:00,118.80999755859375,115.3499984741211,117.4800033569336,2286700
112.99996948242188,116.04000091552734,2014-07-18 13:30:00,116.38999938964844,114.33999633789062,115.36000061035156,2605200
113.10707092285156,116.1500015258789,2014-07-21 13:30:00,116.43000030517578,115.12000274658203,115.86000061035156,1595000
113.49659729003906,116.55000305175781,2014-07-22 13:30:00,117.62000274658203,115.80000305175781,116.75,2600600
112.91230773925781,115.94999694824219,2014-07-23 13:30:00,116.69999694824219,115.30000305175781,116.69999694824219,3621600
113.15576934814453,116.19999694824219,2014-07-24 13:30:00,116.93000030517578,115.69999694824219,116.4800033569336,2864400
111.8119125366211,114.81999969482422,2014-07-25 13:30:00,115.86000061035156,114.4000015258789,115.58000183105469,1981100
110.41938781738281,113.38999938964844,2014-07-28 13:30:00,115.0199966430664,113.0,114.81999969482422,2993500
111.24710083007812,114.23999786376953,2014-07-29 13:30:00,115.33000183105469,113.19000244140625,113.2699966430664,2502800
110.65308380126953,113.62999725341797,2014-07-30 13:30:00,115.44000244140625,113.36000061035156,114.83000183105469,1778300
106.57286834716797,109.44000244140625,2014-07-31 13:30:00,113.08999633789062,109.37000274658203,112.83999633789062,4162500
105.20955657958984,108.04000091552734,2014-08-01 13:30:00,109.80999755859375,107.16000366210938,108.6500015258789,3966400
108.88077545166016,111.80999755859375,2014-08-04 13:30:00,112.12000274658203,108.08000183105469,108.73999786376953,3002600
105.78408813476562,108.62999725341797,2014-08-05 13:30:00,111.80999755859375,107.51000213623047,111.80999755859375,4848700
103.84622192382812,106.63999938964844,2014-08-06 13:30:00,108.51000213623047,105.62999725341797,107.02999877929688,5007700
103.28141784667969,106.05999755859375,2014-08-07 13:30:00,107.62999725341797,105.4000015258789,107.62999725341797,2977200
104.95635223388672,107.77999877929688,2014-08-08 13:30:00,107.9000015258789,106.06999969482422,106.06999969482422,2354100
105.4627456665039,108.30000305175781,2014-08-11 13:30:00,109.0,107.91999816894531,108.72000122070312,2760600
103.8949203491211,106.69000244140625,2014-08-12 13:30:00,108.48999786376953,106.33999633789062,107.88999938964844,3265800
103.56382751464844,106.3499984741211,2014-08-13 13:30:00,107.87999725341797,106.22000122070312,107.66000366210938,2337400
101.20722198486328,103.93000030517578,2014-08-14 13:30:00,107.2300033569336,103.56999969482422,107.22000122070312,3490700
103.31062316894531,106.08999633789062,2014-08-15 13:30:00,106.41999816894531,103.66999816894531,103.97000122070312,4557700
102.66793060302734,105.43000030517578,2014-08-18 13:30:00,106.91000366210938,104.66000366210938,106.6500015258789,3275500
104.22601318359375,107.02999877929688,2014-08-19 13:30:00,107.3499984741211,105.66000366210938,106.0999984741211,3145300
104.46945190429688,107.27999877929688,2014-08-20 13:30:00,107.44999694824219,106.0999984741211,107.08999633789062,2185900
104.38180541992188,107.19000244140625,2014-08-21 13:30:00,107.5199966430664,106.0199966430664,107.5,2138800
103.48590087890625,106.2699966430664,2014-08-22 13:30:00,106.83999633789062,105.61000061035156,106.58999633789062,2075400
105.11217498779297,107.94000244140625,2014-08-25 13:30:00,108.25,106.5999984741211,106.93000030517578,1932600
106.53392028808594,109.4000015258789,2014-08-26 13:30:00,110.47000122070312,108.5,108.86000061035156,3283200
105.76461791992188,108.61000061035156,2014-08-27 13:30:00,109.44999694824219,108.06999969482422,109.43000030517578,1996700
105.55037689208984,108.38999938964844,2014-08-28 13:30:00,109.08000183105469,108.0999984741211,108.31999969482422,1756800
107.0013427734375,109.87999725341797,2014-08-29 13:30:00,109.9800033569336,108.37000274658203,108.80000305175781,1802700
104.88818359375,107.70999908447266,2014-09-02 13:30:00,109.8499984741211,107.08000183105469,109.56999969482422,2755100
104.91738891601562,107.73999786376953,2014-09-03 13:30:00,109.08000183105469,107.45999908447266,108.8499984741211,1479100
101.86940002441406,104.61000061035156,2014-09-04 13:30:00,107.98999786376953,103.97000122070312,107.76000213623047,3937200
102.4244613647461,105.18000030517578,2014-09-05 13:30:00,105.29000091552734,103.05000305175781,104.3499984741211,3235500
98.75325012207031,101.41000366210938,2014-09-08 13:30:00,104.06999969482422,100.75,104.06999969482422,5549200
98.65584564208984,101.30999755859375,2014-09-09 13:30:00,102.48999786376953,100.81999969482422,101.62999725341797,3636000
99.3375244140625,102.01000213623047,2014-09-10 13:30:00,102.13999938964844,99.33000183105469,100.93000030517578,3713700
100.36000061035156,103.05999755859375,2014-09-11 13:30:00,103.12999725341797,100.5,100.93000030517578,4596100
98.66558837890625,101.31999969482422,2014-09-12 13:30:00,102.56999969482422,101.02999877929688,102.5,3683100
99.24014282226562,101.91000366210938,2014-09-15 13:30:00,102.41000366210938,100.12000274658203,100.80000305175781,3055400
102.46341705322266,105.22000122070312,2014-09-16 13:30:00,105.9000015258789,101.75,102.33000183105469,4116100
102.4342041015625,105.19000244140625,2014-09-17 13:30:00,106.08999633789062,104.5199966430664,105.6500015258789,3689600
102.22972106933594,104.9800033569336,2014-09-18 13:30:00,105.98999786376953,104.20999908447266,105.81999969482422,3003200
101.63571166992188,104.37000274658203,2014-09-19 13:30:00,105.9000015258789,103.95999908447266,105.23999786376953,6346200
99.0745849609375,101.73999786376953,2014-09-22 13:30:00,103.86000061035156,100.56999969482422,103.81999969482422,4437000
98.19816589355469,100.83999633789062,2014-09-23 13:30:00,101.62999725341797,100.44999694824219,101.55000305175781,5577300
99.46411895751953,102.13999938964844,2014-09-24 13:30:00,102.87000274658203,99.55000305175781,100.94000244140625,4584400
97.73075866699219,100.36000061035156,2014-09-25 13:30:00,102.69999694824219,100.13999938964844,102.63999938964844,3588900
99.21092224121094,101.87999725341797,2014-09-26 13:30:00,102.41000366210938,100.20999908447266,100.37000274658203,3327500
99.20118713378906,101.87000274658203,2014-09-29 13:30:00,102.05999755859375,100.0999984741211,100.80000305175781,4300400
96.42585754394531,99.0199966430664,2014-09-30 13:30:00,101.8499984741211,97.44999694824219,101.8499984741211,6422700
94.31269836425781,96.8499984741211,2014-10-01 13:30:00,99.7300033569336,96.1500015258789,99.20999908447266,5856700
94.51720428466797,97.05999755859375,2014-10-02 13:30:00,97.63999938964844,94.2699966430664,95.76000213623047,5381500
94.0400161743164,96.56999969482422,2014-10-03 13:30:00,97.72000122070312,95.56999969482422,97.72000122070312,4433900
92.59880828857422,95.08999633789062,2014-10-06 13:30:00,97.0,94.36000061035156,96.83999633789062,5114400
91.1575927734375,93.61000061035156,2014-10-07 13:30:00,96.0199966430664,93.56999969482422,95.0199966430664,5515800
92.08268737792969,94.55999755859375,2014-10-08 13:30:00,94.69000244140625,90.80000305175781,93.30999755859375,7723600
89.55081176757812,91.95999908447266,2014-10-09 13:30:00,93.7300033569336,90.87999725341797,93.63999938964844,9684400
87.47661590576172,89.83000183105469,2014-10-10 13:30:00,91.94999694824219,88.61000061035156,91.06999969482422,9915400
81.56564331054688,83.76000213623047,2014-10-13 13:30:00,90.30000305175781,83.58000183105469,89.25,9446700
81.6435317993164,83.83999633789062,2014-10-14 13:30:00,86.87999725341797,83.5,85.4000015258789,12228000
86.03196716308594,88.16999816894531,2014-10-15 13:30:00,88.52999877929688,81.06999969482422,82.02999877929688,11107300
89.05680084228516,91.2699966430664,2014-10-16 13:30:00,92.5199966430664,85.19000244140625,85.19000244140625,10111100
89.00802612304688,91.22000122070312,2014-10-17 13:30:00,95.55000305175781,90.26000213623047,94.19999694824219,8665500
90.51068115234375,92.76000213623047,2014-10-20 13:30:00,93.12999725341797,90.7699966430664,91.62999725341797,4420600
93.70138549804688,96.02999877929688,2014-10-21 13:30:00,96.1500015258789,94.2699966430664,94.3499984741211,6298800
89.83740997314453,92.06999969482422,2014-10-22 13:30:00,97.0,91.9800033569336,96.76000213623047,7672400
91.13516235351562,93.4000015258789,2014-10-23 13:30:00,94.83999633789062,92.4000015258789,94.23999786376953,9219300
89.8666763305664,92.0999984741211,2014-10-24 13:30:00,93.0199966430664,90.19999694824219,92.94999694824219,5417400
86.2856674194336,88.43000030517578,2014-10-27 13:30:00,90.27999877929688,86.94999694824219,90.27999877929688,7433800
89.28123474121094,91.5,2014-10-28 13:30:00,91.91000366210938,87.55000305175781,88.80999755859375,6123200
90.87169647216797,93.12999725341797,2014-10-29 13:30:00,95.31999969482422,91.76000213623047,94.23999786376953,5926100
89.98375701904297,92.22000122070312,2014-10-30 13:30:00,93.29000091552734,91.02999877929688,92.56999969482422,3746200
92.74515533447266,95.05000305175781,2014-10-31 13:30:00,95.0999984741211,90.73999786376953,91.94999694824219,5495200
91.05709075927734,93.31999969482422,2014-11-03 14:30:00,96.80999755859375,92.88999938964844,95.05000305175781,7006200
88.09081268310547,90.27999877929688,2014-11-04 14:30:00,90.98999786376953,89.0,89.66999816894531,8208000
93.76969146728516,96.0999984741211,2014-11-05 14:30:00,97.47000122070312,93.55999755859375,95.5,11401900
96.57009887695312,98.97000122070312,2014-11-06 14:30:00,99.18000030517578,95.11000061035156,95.19000244140625,8202200
97.13603210449219,99.55000305175781,2014-11-07 14:30:00,101.58000183105469,99.2699966430664,99.72000122070312,7009200
96.11148834228516,98.5,2014-11-10 14:30:00,102.25,97.98999786376953,101.01000213623047,5947800
96.35543823242188,98.75,2014-11-11 14:30:00,99.06999969482422,97.11000061035156,98.5,4274300
95.19427490234375,97.55999755859375,2014-11-12 14:30:00,99.3499984741211,97.3499984741211,98.68000030517578,3433700
93.5257568359375,95.8499984741211,2014-11-13 14:30:00,97.44000244140625,94.47000122070312,96.5,5859300
95.77973937988281,98.16000366210938,2014-11-14 14:30:00,98.36000061035156,96.19999694824219,96.31999969482422,3992700
94.01361083984375,96.3499984741211,2014-11-17 14:30:00,97.37999725341797,95.7300033569336,97.01000213623047,4349400
95.30162811279297,97.66999816894531,2014-11-18 14:30:00,98.26000213623047,96.08999633789062,96.31999969482422,3917200
95.94560241699219,98.33000183105469,2014-11-19 14:30:00,98.80000305175781,96.77999877929688,98.75,3830800
97.02869415283203,99.44000244140625,2014-11-20 14:30:00,100.29000091552734,98.33999633789062,98.44999694824219,4624100
99.27291870117188,101.73999786376953,2014-11-21 14:30:00,103.04000091552734,101.29000091552734,102.48999786376953,6378700
97.14579010009766,99.55999755859375,2014-11-24 14:30:00,101.73999786376953,99.25,101.18000030517578,4110900
94.3941650390625,96.73999786376953,2014-11-25 14:30:00,100.31999969482422,96.72000122070312,100.27999877929688,5592000
91.7889175415039,94.06999969482422,2014-11-26 14:30:00,96.62999725341797,93.86000061035156,96.62000274658203,5346100
84.61714172363281,86.72000122070312,2014-11-28 14:30:00,88.43000030517578,85.19000244140625,87.16000366210938,9472100
85.12452697753906,87.23999786376953,2014-12-01 14:30:00,87.58000183105469,83.66000366210938,85.5199966430664,10063500
88.11034393310547,90.30000305175781,2014-12-02 14:30:00,91.33000183105469,86.87000274658203,87.37999725341797,10159600
89.57396697998047,91.80000305175781,2014-12-03 14:30:00,93.5999984741211,90.80000305175781,91.70999908447266,6237200
90.74486541748047,93.0,2014-12-04 14:30:00,93.0,89.75,90.79000091552734,5108100
88.54943084716797,90.75,2014-12-05 14:30:00,92.05000305175781,89.77999877929688,91.91000366210938,7572500
86.0514907836914,88.19000244140625,2014-12-08 14:30:00,89.5,87.51000213623047,89.08000183105469,8672200
86.98821258544922,89.1500015258789,2014-12-09 14:30:00,91.12000274658203,86.7699966430664,87.0,8197500
84.68545532226562,86.79000091552734,2014-12-10 14:30:00,87.26000213623047,85.54000091552734,86.37999725341797,8821700
84.75374603271484,86.86000061035156,2014-12-11 14:30:00,89.76000213623047,86.12999725341797,87.19000244140625,5808100
84.275634765625,86.37000274658203,2014-12-12 14:30:00,88.41999816894531,85.0999984741211,85.30999755859375,6606200
83.27059173583984,85.33999633789062,2014-12-15 14:30:00,88.16000366210938,84.94999694824219,87.08999633789062,6867000
83.39745330810547,85.47000122070312,2014-12-16 14:30:00,89.38999938964844,83.77999877929688,83.86000061035156,8303700
88.92996215820312,91.13999938964844,2014-12-17 14:30:00,92.20999908447266,86.11000061035156,87.61000061035156,10269500
90.20819091796875,92.44999694824219,2014-12-18 14:30:00,94.38999938964844,88.9000015258789,93.83000183105469,8888600
92.71586608886719,95.0199966430664,2014-12-19 14:30:00,95.08999633789062,92.44999694824219,93.62999725341797,7853400
92.7549057006836,95.05999755859375,2014-12-22 14:30:00,95.62000274658203,93.68000030517578,94.20999908447266,6746600
94.07217407226562,96.41000366210938,2014-12-23 14:30:00,97.2699966430664,94.54000091552734,95.73999786376953,4243900
91.7694091796875,94.05000305175781,2014-12-24 14:30:00,95.63999938964844,92.51000213623047,95.61000061035156,3012800
91.54498291015625,93.81999969482422,2014-12-26 14:30:00,95.19999694824219,93.33000183105469,94.9000015258789,2210600
92.04261779785156,94.33000183105469,2014-12-29 14:30:00,95.20999908447266,93.44999694824219,94.55000305175781,3397000
90.45213317871094,92.69999694824219,2014-12-30 14:30:00,94.33000183105469,91.88999938964844,93.5,3379400
89.83740997314453,92.06999969482422,2014-12-31 14:30:00,93.55000305175781,90.75,91.97000122070312,3329200
90.00328826904297,92.23999786376953,2015-01-02 14:30:00,92.98999786376953,90.36000061035156,91.01000213623047,3462300
84.57809448242188,86.68000030517578,2015-01-05 14:30:00,90.77999877929688,86.0199966430664,89.95999908447266,6173600
82.16800689697266,84.20999908447266,2015-01-06 14:30:00,86.5999984741211,82.76000213623047,85.83999633789062,8142000
81.6508560180664,83.68000030517578,2015-01-07 14:30:00,85.7300033569336,82.72000122070312,85.18000030517578,5950300
84.77325439453125,86.87999725341797,2015-01-08 14:30:00,87.6500015258789,84.06999969482422,84.72000122070312,5836500
85.3392105102539,87.45999908447266,2015-01-09 14:30:00,88.02999877929688,86.01000213623047,87.0199966430664,4027200
82.46073150634766,84.51000213623047,2015-01-12 14:30:00,85.3499984741211,83.19999694824219,85.11000061035156,4810300
82.99739074707031,85.05999755859375,2015-01-13 14:30:00,86.66000366210938,84.05000305175781,84.97000122070312,5444200
85.78133392333984,87.73999786376953,2015-01-14 14:30:00,88.08999633789062,83.66999816894531,84.06999969482422,6698200
84.59835815429688,86.52999877929688,2015-01-15 14:30:00,89.5,86.44999694824219,89.04000091552734,4941700
88.29396057128906,90.30999755859375,2015-01-16 14:30:00,90.54000091552734,86.54000091552734,86.86000061035156,5483500
87.33583068847656,89.33000183105469,2015-01-20 14:30:00,89.77999877929688,87.5199966430664,89.08999633789062,5869600
88.51882934570312,90.54000091552734,2015-01-21 14:30:00,91.4000015258789,89.68000030517578,90.58999633789062,4911900
88.34284210205078,90.36000061035156,2015-01-22 14:30:00,91.37999725341797,88.58000183105469,91.37999725341797,4471600
88.76323699951172,90.79000091552734,2015-01-23 14:30:00,92.5199966430664,89.69999694824219,90.06999969482422,4410800
90.26885986328125,92.33000183105469,2015-01-26 14:30:00,92.38999938964844,90.1500015258789,91.2300033569336,3431100
90.92390441894531,93.0,2015-01-27 14:30:00,94.41000366210938,91.12000274658203,91.94000244140625,5283000
86.13328552246094,88.0999984741211,2015-01-28 14:30:00,92.69000244140625,87.76000213623047,92.33000183105469,5772900
86.92520904541016,88.91000366210938,2015-01-29 14:30:00,89.41000366210938,86.76000213623047,89.12000274658203,5188700
87.04254150390625,89.02999877929688,2015-01-30 14:30:00,90.06999969482422,87.4000015258789,88.16000366210938,7469900
90.45462799072266,92.5199966430664,2015-02-02 14:30:00,92.56999969482422,89.52999877929688,90.98999786376953,5615500
94.16002655029297,96.30999755859375,2015-02-03 14:30:00,97.87999725341797,94.6500015258789,94.72000122070312,8898600
93.06502532958984,95.19000244140625,2015-02-04 14:30:00,97.52999877929688,93.54000091552734,94.4000015258789,9869100
94.04269409179688,96.19000244140625,2015-02-05 14:30:00,97.29000091552734,95.16000366210938,95.70999908447266,5596600
93.6516342163086,95.79000091552734,2015-02-06 14:30:00,97.20999908447266,95.56999969482422,96.98999786376953,5177000
93.80805969238281,95.94999694824219,2015-02-09 14:30:00,97.2300033569336,95.77999877929688,96.5999984741211,4249100
93.13346099853516,95.26000213623047,2015-02-10 14:30:00,96.69000244140625,93.83999633789062,96.6500015258789,4308300
91.11944580078125,93.19999694824219,2015-02-11 14:30:00,94.08999633789062,92.1500015258789,93.83999633789062,6332300
92.6837387084961,94.80000305175781,2015-02-12 14:30:00,95.23999786376953,93.47000122070312,94.95999908447266,3944500
94.75638580322266,96.91999816894531,2015-02-13 14:30:00,96.97000122070312,95.25,95.94000244140625,4158500
94.33599853515625,96.48999786376953,2015-02-17 14:30:00,96.66999816894531,95.6500015258789,96.08000183105469,4234300
93.18232727050781,95.30999755859375,2015-02-18 14:30:00,96.48999786376953,94.5,96.48999786376953,4279700
91.7060546875,93.80000305175781,2015-02-19 14:30:00,94.73999786376953,86.58000183105469,86.68000030517578,18682400
89.0467758178711,91.08000183105469,2015-02-20 14:30:00,93.45999908447266,90.06999969482422,93.08999633789062,7937800
89.87779235839844,91.93000030517578,2015-02-23 14:30:00,92.0999984741211,89.25,90.05999755859375,5501300
89.56494140625,91.61000061035156,2015-02-24 14:30:00,93.0,91.26000213623047,92.8499984741211,4160100
90.95323944091797,93.02999877929688,2015-02-25 14:30:00,93.25,91.29000091552734,91.54000091552734,5787800
88.11797332763672,90.12999725341797,2015-02-26 14:30:00,92.25,89.61000061035156,91.80999755859375,5427100
87.7171401977539,89.72000122070312,2015-02-27 14:30:00,90.70999908447266,89.29000091552734,90.62999725341797,3837600
87.07186126708984,89.05999755859375,2015-03-02 14:30:00,89.72000122070312,87.08000183105469,89.72000122070312,5347800
88.35263061523438,90.37000274658203,2015-03-03 14:30:00,91.11000061035156,88.5999984741211,88.9800033569336,4381400
88.46994018554688,90.48999786376953,2015-03-04 14:30:00,90.94999694824219,88.55000305175781,90.19999694824219,3868200
87.59002685546875,89.58999633789062,2015-03-05 14:30:00,90.5199966430664,89.37000274658203,89.8499984741211,2688100
86.5927963256836,88.56999969482422,2015-03-06 14:30:00,90.0,88.2300033569336,88.91999816894531,4063600
85.76177978515625,87.72000122070312,2015-03-09 13:30:00,89.25,87.63999938964844,88.08000183105469,3443600
84.26592254638672,86.19000244140625,2015-03-10 13:30:00,88.56999969482422,86.1500015258789,86.87999725341797,4791900
84.61790466308594,86.55000305175781,2015-03-11 13:30:00,87.37000274658203,85.87999725341797,86.41999816894531,3973700
83.79663848876953,85.70999908447266,2015-03-12 13:30:00,87.19000244140625,85.62000274658203,87.05000305175781,3051700
83.4837875366211,85.38999938964844,2015-03-13 13:30:00,85.66000366210938,84.0999984741211,85.19999694824219,4415600
85.9377670288086,87.9000015258789,2015-03-16 13:30:00,88.02999877929688,85.05999755859375,85.11000061035156,4953800
84.86231994628906,86.80000305175781,2015-03-17 13:30:00,87.97000122070312,86.4000015258789,86.86000061035156,3775200
88.63616180419922,90.66000366210938,2015-03-18 13:30:00,91.37000274658203,86.0,86.08000183105469,5383000
87.5313720703125,89.52999877929688,2015-03-19 13:30:00,89.9000015258789,88.36000061035156,89.4000015258789,3558700
88.65570831298828,90.68000030517578,2015-03-20 13:30:00,91.94000244140625,89.43000030517578,89.75,5980000
87.0132064819336,89.0,2015-03-23 13:30:00,91.41000366210938,89.0,91.25,3181200
86.85677337646484,88.83999633789062,2015-03-24 13:30:00,89.94000244140625,88.63999938964844,89.19999694824219,2681200
87.9517593383789,89.95999908447266,2015-03-25 13:30:00,90.6500015258789,88.79000091552734,89.68000030517578,3664800
89.32051086425781,91.36000061035156,2015-03-26 13:30:00,91.93000030517578,90.25,91.48999786376953,4857100
88.53837585449219,90.55999755859375,2015-03-27 13:30:00,91.12000274658203,90.13999938964844,90.62000274658203,2530900
90.08309173583984,92.13999938964844,2015-03-30 13:30:00,92.5,90.77999877929688,91.63999938964844,3478900
89.64315795898438,91.69000244140625,2015-03-31 13:30:00,92.47000122070312,90.83000183105469,91.12999725341797,3576000
89.18363952636719,91.22000122070312,2015-04-01 13:30:00,93.3499984741211,91.05999755859375,92.04000091552734,3813800
90.640380859375,92.70999908447266,2015-04-02 13:30:00,92.97000122070312,89.2300033569336,90.30000305175781,4596300
92.75215911865234,94.87000274658203,2015-04-06 13:30:00,95.4000015258789,93.30000305175781,93.36000061035156,4770000
92.16557312011719,94.2699966430664,2015-04-07 13:30:00,95.98999786376953,94.12000274658203,95.19999694824219,5233200
91.94068908691406,94.04000091552734,2015-04-08 13:30:00,95.58000183105469,93.80000305175781,95.01000213623047,3274400
93.57341766357422,95.70999908447266,2015-04-09 13:30:00,96.06999969482422,94.11000061035156,94.11000061035156,3408000
94.43376922607422,96.58999633789062,2015-04-10 13:30:00,96.5999984741211,95.25,95.87000274658203,2570400
92.57617950439453,94.69000244140625,2015-04-13 13:30:00,96.9000015258789,94.19999694824219,96.75,3111400
94.4737777709961,96.45999908447266,2015-04-14 13:30:00,96.94999694824219,95.33999633789062,95.66000366210938,3192200
95.94290161132812,97.95999908447266,2015-04-15 13:30:00,98.33999633789062,96.43000030517578,96.76000213623047,5859500
95.9820785522461,98.0,2015-04-16 13:30:00,98.94999694824219,97.16999816894531,97.83000183105469,4054400
95.22795104980469,97.2300033569336,2015-04-17 13:30:00,97.47000122070312,96.38999938964844,97.04000091552734,3201200
95.72743225097656,97.73999786376953,2015-04-20 13:30:00,99.01000213623047,97.18000030517578,97.18000030517578,3127700
94.60111236572266,96.58999633789062,2015-04-21 13:30:00,98.31999969482422,96.36000061035156,97.83000183105469,3238300
95.68824768066406,97.69999694824219,2015-04-22 13:30:00,98.5999984741211,96.30000305175781,96.94000244140625,2897800
96.24649810791016,98.2699966430664,2015-04-23 13:30:00,99.25,97.83999633789062,97.9800033569336,2708400
94.72843933105469,96.72000122070312,2015-04-24 13:30:00,97.97000122070312,95.91000366210938,97.9000015258789,3139600
95.35526275634766,97.36000061035156,2015-04-27 13:30:00,97.95999908447266,96.55999755859375,97.55000305175781,2980500
96.43260955810547,98.45999908447266,2015-04-28 13:30:00,98.80999755859375,97.63999938964844,97.63999938964844,3736600
97.68624877929688,99.73999786376953,2015-04-29 13:30:00,99.9800033569336,97.79000091552734,98.22000122070312,3902600
96.91251373291016,98.94999694824219,2015-04-30 13:30:00,100.44000244140625,98.4800033569336,100.0,3462000
96.86354064941406,98.9000015258789,2015-05-01 13:30:00,101.0,97.61000061035156,99.20999908447266,3584700
97.34346008300781,99.38999938964844,2015-05-04 13:30:00,101.36000061035156,98.55000305175781,99.11000061035156,7312700
92.59333038330078,94.54000091552734,2015-05-05 13:30:00,100.19999694824219,94.52999877929688,98.69999694824219,11762000
93.1222152709961,95.08000183105469,2015-05-06 13:30:00,96.86000061035156,94.48999786376953,96.20999908447266,5163500
91.57473754882812,93.5,2015-05-07 13:30:00,96.0999984741211,92.41999816894531,96.0999984741211,5197800
91.57473754882812,93.5,2015-05-08 13:30:00,94.5,92.55999755859375,94.4800033569336,4922300
89.72364807128906,91.61000061035156,2015-05-11 13:30:00,94.23999786376953,91.47000122070312,94.05000305175781,3952400
91.4865951538086,93.41000366210938,2015-05-12 13:30:00,93.58999633789062,91.70999908447266,91.76000213623047,3468500
89.71385955810547,91.5999984741211,2015-05-13 13:30:00,94.06999969482422,90.9800033569336,94.04000091552734,3548300
88.8617935180664,90.7300033569336,2015-05-14 13:30:00,92.08000183105469,90.68000030517578,91.98999786376953,3582200
88.60712432861328,90.47000122070312,2015-05-15 13:30:00,91.23999786376953,89.25,90.31999969482422,3267300
89.90974426269531,91.80000305175781,2015-05-18 13:30:00,92.04000091552734,89.9000015258789,90.55999755859375,2980200
88.40145874023438,90.26000213623047,2015-05-19 13:30:00,91.61000061035156,90.23999786376953,91.4800033569336,3588500
88.59734344482422,90.45999908447266,2015-05-20 13:30:00,90.72000122070312,89.76000213623047,90.5999984741211,3734400
89.60612487792969,91.48999786376953,2015-05-21 13:30:00,91.83000183105469,90.68000030517578,91.16999816894531,3958000
88.40145874023438,90.26000213623047,2015-05-22 13:30:00,91.38999938964844,90.06999969482422,90.4000015258789,3055500
87.31432342529297,89.1500015258789,2015-05-26 13:30:00,89.80999755859375,88.55000305175781,89.25,3920700
87.16739654541016,89.0,2015-05-27 13:30:00,89.94000244140625,88.51000213623047,89.12999725341797,3016900
87.31432342529297,89.1500015258789,2015-05-28 13:30:00,89.36000061035156,88.0,88.55000305175781,3790800
86.86378479003906,88.69000244140625,2015-05-29 13:30:00,89.5199966430664,88.26000213623047,89.41999816894531,3929600
86.93234252929688,88.76000213623047,2015-06-01 13:30:00,89.12000274658203,88.18000030517578,89.0199966430664,2886500
87.9215316772461,89.7699966430664,2015-06-02 13:30:00,90.3499984741211,88.20999908447266,89.0199966430664,3534200
87.17720031738281,89.01000213623047,2015-06-03 13:30:00,90.47000122070312,88.97000122070312,89.55000305175781,2158400
85.58073425292969,87.37999725341797,2015-06-04 13:30:00,89.12999725341797,87.27999877929688,88.2300033569336,3774200
87.83338928222656,89.68000030517578,2015-06-05 13:30:00,90.63999938964844,86.81999969482422,87.0,4429900
87.27513885498047,89.11000061035156,2015-06-08 13:30:00,89.95999908447266,88.62999725341797,89.37000274658203,2733800
87.25554656982422,89.08999633789062,2015-06-09 13:30:00,91.4800033569336,89.08999633789062,90.0199966430664,2661000
88.54837036132812,90.41000366210938,2015-06-10 13:30:00,90.70999908447266,89.66000366210938,90.38999938964844,2914800
88.7834243774414,90.6500015258789,2015-06-11 13:30:00,91.05000305175781,90.2300033569336,91.0,2300900
87.68648529052734,89.52999877929688,2015-06-12 13:30:00,90.43000030517578,89.12000274658203,90.16000366210938,2464100
87.38286590576172,89.22000122070312,2015-06-15 13:30:00,89.86000061035156,88.5,88.51000213623047,2795300
88.22515869140625,90.08000183105469,2015-06-16 13:30:00,90.36000061035156,89.02999877929688,89.06999969482422,2286400
87.18698120117188,89.0199966430664,2015-06-17 13:30:00,91.1500015258789,88.41999816894531,90.68000030517578,4998100
86.98131561279297,88.80999755859375,2015-06-18 13:30:00,90.12999725341797,88.54000091552734,89.76000213623047,3602500
86.45243072509766,88.2699966430664,2015-06-19 13:30:00,89.12000274658203,88.23999786376953,88.29000091552734,4298600
86.2663345336914,88.08000183105469,2015-06-22 13:30:00,88.66999816894531,87.44999694824219,88.5999984741211,2845600
86.96172332763672,88.79000091552734,2015-06-23 13:30:00,88.81999969482422,87.66000366210938,88.27999877929688,3613300
86.52098846435547,88.33999633789062,2015-06-24 13:30:00,89.06999969482422,88.0999984741211,88.54000091552734,3785900
85.8451919555664,87.6500015258789,2015-06-25 13:30:00,88.2699966430664,87.30000305175781,88.16999816894531,3797800
86.24674987792969,88.05999755859375,2015-06-26 13:30:00,88.69999694824219,87.08000183105469,87.5999984741211,11406600
84.47402954101562,86.25,2015-06-29 13:30:00,87.94000244140625,86.1500015258789,86.98999786376953,4022300
85.74726104736328,87.55000305175781,2015-06-30 13:30:00,87.9000015258789,86.33999633789062,86.98999786376953,3941400
84.00389862060547,85.7699966430664,2015-07-01 13:30:00,87.8499984741211,84.83999633789062,87.8499984741211,4644500
83.90597534179688,85.66999816894531,2015-07-02 13:30:00,86.69999694824219,85.58999633789062,85.94999694824219,2699900
83.33790588378906,85.08999633789062,2015-07-06 13:30:00,86.18000030517578,84.05000305175781,84.48999786376953,3513300
84.93434143066406,86.72000122070312,2015-07-07 13:30:00,87.0999984741211,83.83000183105469,85.77999877929688,5118300
82.75027465820312,84.48999786376953,2015-07-08 13:30:00,86.91999816894531,84.0,86.0999984741211,4681200
83.54358673095703,85.30000305175781,2015-07-09 13:30:00,87.3499984741211,85.18000030517578,85.98999786376953,3784000
82.79923248291016,84.54000091552734,2015-07-10 13:30:00,86.76000213623047,84.44999694824219,85.9800033569336,2903800
82.47601318359375,84.20999908447266,2015-07-13 13:30:00,84.79000091552734,83.47000122070312,84.52999877929688,3830200
83.47502899169922,85.2300033569336,2015-07-14 13:30:00,85.63999938964844,84.0999984741211,84.19999694824219,3276100
81.69634246826172,83.25,2015-07-15 13:30:00,85.2300033569336,83.05000305175781,84.62000274658203,3917300
80.86222076416016,82.4000015258789,2015-07-16 13:30:00,83.80000305175781,82.33999633789062,83.73999786376953,4019300
78.99766540527344,80.5,2015-07-17 13:30:00,82.1500015258789,80.26000213623047,81.97000122070312,6069300
76.47562408447266,77.93000030517578,2015-07-20 13:30:00,80.25,77.91999816894531,80.23999786376953,7054000
75.88683319091797,77.33000183105469,2015-07-21 13:30:00,78.37999725341797,76.94000244140625,78.08999633789062,6823700
74.66997528076172,76.08999633789062,2015-07-22 13:30:00,77.48999786376953,75.76000213623047,77.18000030517578,7205200
74.89566802978516,76.31999969482422,2015-07-23 13:30:00,76.81999969482422,75.47000122070312,76.19999694824219,6335400
73.75733947753906,75.16000366210938,2015-07-24 13:30:00,76.58000183105469,74.62000274658203,76.0999984741211,5850200
71.82410430908203,73.19000244140625,2015-07-27 13:30:00,74.7300033569336,72.86000061035156,74.0999984741211,5621300
75.41578674316406,76.8499984741211,2015-07-28 13:30:00,77.55999755859375,73.4000015258789,73.4000015258789,7887200
76.2891845703125,77.73999786376953,2015-07-29 13:30:00,79.01000213623047,76.5,76.5,6360600
77.0742416381836,78.54000091552734,2015-07-30 13:30:00,78.72000122070312,76.80000305175781,77.6500015258789,4539800
75.74944305419922,77.19000244140625,2015-07-31 13:30:00,78.30999755859375,77.0,78.0,4190200
75.01343536376953,76.44000244140625,2015-08-03 13:30:00,77.62999725341797,75.44999694824219,76.19999694824219,5136500
75.3078384399414,76.73999786376953,2015-08-04 13:30:00,77.7699966430664,76.3499984741211,77.08000183105469,3981900
74.66997528076172,76.08999633789062,2015-08-05 13:30:00,78.94999694824219,75.95999908447266,78.05999755859375,4896800
76.23030090332031,77.68000030517578,2015-08-06 13:30:00,78.33999633789062,75.30000305175781,75.6500015258789,6709500
72.38346099853516,73.76000213623047,2015-08-07 13:30:00,78.69999694824219,73.02999877929688,75.25,8476100
74.84660339355469,76.2699966430664,2015-08-10 13:30:00,76.4800033569336,73.62000274658203,73.66999816894531,6935200
75.85740661621094,77.30000305175781,2015-08-11 13:30:00,77.43000030517578,74.18000030517578,75.12999725341797,5851700
78.43830108642578,79.93000030517578,2015-08-12 13:30:00,80.26000213623047,76.5,77.31999969482422,8234000
78.19297790527344,79.68000030517578,2015-08-13 13:30:00,80.5,78.33999633789062,79.30000305175781,5889700
78.43830108642578,79.93000030517578,2015-08-14 13:30:00,80.87999725341797,78.80000305175781,79.5,3885400
78.51681518554688,80.01000213623047,2015-08-17 13:30:00,80.16000366210938,78.88999938964844,79.5,3747200
78.90935516357422,80.41000366210938,2015-08-18 13:30:00,80.54000091552734,79.27999877929688,79.70999908447266,3536700
75.6316909790039,77.06999969482422,2015-08-19 13:30:00,79.87999725341797,76.06999969482422,79.87000274658203,6122900
75.29803466796875,76.7300033569336,2015-08-20 13:30:00,78.44000244140625,76.61000061035156,77.0199966430664,6793500
73.46292877197266,74.86000061035156,2015-08-21 13:30:00,77.43000030517578,74.12000274658203,76.38999938964844,7769100
67.96745300292969,69.26000213623047,2015-08-24 13:30:00,73.27999877929688,68.1500015258789,70.0,9518800
67.08424377441406,68.36000061035156,2015-08-25 13:30:00,72.11000061035156,68.29000091552734,72.0999984741211,6720600
69.66515350341797,70.98999786376953,2015-08-26 13:30:00,71.04000091552734,68.4000015258789,70.20999908447266,6763700
74.3755874633789,75.79000091552734,2015-08-27 13:30:00,76.0999984741211,72.86000061035156,72.98999786376953,7160700
75.86720275878906,77.30999755859375,2015-08-28 13:30:00,79.33999633789062,75.41000366210938,75.5,6962200
76.8485336303711,78.30999755859375,2015-08-31 13:30:00,79.16000366210938,74.56999969482422,76.19999694824219,6813800
74.60128021240234,76.0199966430664,2015-09-01 13:30:00,77.31999969482422,75.18000030517578,76.0199966430664,6376900
76.25975036621094,77.70999908447266,2015-09-02 13:30:00,77.70999908447266,74.87000274658203,77.05999755859375,5356500
76.00459289550781,77.44999694824219,2015-09-03 13:30:00,80.16000366210938,76.79000091552734,78.25,6228100
75.45504760742188,76.88999938964844,2015-09-04 13:30:00,77.44000244140625,75.94999694824219,76.22000122070312,4700700
76.2106704711914,77.66000366210938,2015-09-08 13:30:00,78.18000030517578,75.44999694824219,77.58000183105469,5137600
75.49430084228516,76.93000030517578,2015-09-09 13:30:00,79.3499984741211,76.66999816894531,78.73999786376953,6390100
76.60321044921875,78.05999755859375,2015-09-10 13:30:00,78.23999786376953,76.12999725341797,77.56999969482422,4814700
75.71019744873047,77.1500015258789,2015-09-11 13:30:00,77.41000366210938,75.83999633789062,76.75,4571800
75.00363159179688,76.43000030517578,2015-09-14 13:30:00,77.1500015258789,76.04000091552734,77.1500015258789,3705000
75.8083267211914,77.25,2015-09-15 13:30:00,77.80000305175781,76.55999755859375,77.04000091552734,3625100
78.44812774658203,79.94000244140625,2015-09-16 13:30:00,80.16999816894531,77.45999908447266,77.68000030517578,3996000
78.17334747314453,79.66000366210938,2015-09-17 13:30:00,81.18000030517578,79.12000274658203,80.0199966430664,5499100
74.8368148803711,76.26000213623047,2015-09-18 13:30:00,79.19000244140625,75.93000030517578,78.86000061035156,5964000
75.09194946289062,76.5199966430664,2015-09-21 13:30:00,77.33000183105469,75.87000274658203,77.05000305175781,3258700
73.81621551513672,75.22000122070312,2015-09-22 13:30:00,76.66000366210938,74.69000244140625,75.43000030517578,3433900
71.67688751220703,73.04000091552734,2015-09-23 13:30:00,75.93000030517578,72.87000274658203,75.23999786376953,3891400
71.89280700683594,73.26000213623047,2015-09-24 13:30:00,73.72000122070312,71.4800033569336,72.29000091552734,4443600
71.43156433105469,72.79000091552734,2015-09-25 13:30:00,74.20999908447266,72.19000244140625,74.05999755859375,3894300
68.13426971435547,69.43000030517578,2015-09-28 13:30:00,72.19000244140625,69.0999984741211,71.73999786376953,4581900
68.82120513916016,70.12999725341797,2015-09-29 13:30:00,70.66999816894531,69.13999938964844,69.86000061035156,3773600
71.44139099121094,72.80000305175781,2015-09-30 13:30:00,72.94000244140625,70.66999816894531,70.8499984741211,4762700
72.21662139892578,73.58999633789062,2015-10-01 13:30:00,75.68000030517578,73.0,73.80000305175781,5683400
75.62187194824219,77.05999755859375,2015-10-02 13:30:00,77.44999694824219,71.58999633789062,72.66999816894531,6032600
79.14488220214844,80.6500015258789,2015-10-05 13:30:00,81.69999694824219,78.0,78.16000366210938,7429300
81.29399871826172,82.83999633789062,2015-10-06 13:30:00,83.7300033569336,80.55000305175781,80.72000122070312,6777000
82.2066421508789,83.7699966430664,2015-10-07 13:30:00,85.4000015258789,82.18000030517578,84.37000274658203,6893100
85.41561126708984,87.04000091552734,2015-10-08 13:30:00,87.2699966430664,83.06999969482422,83.30999755859375,6795000
85.6707763671875,87.30000305175781,2015-10-09 13:30:00,88.30000305175781,86.0999984741211,87.3499984741211,5802200
84.42448425292969,86.02999877929688,2015-10-12 13:30:00,88.0,84.93000030517578,87.12000274658203,4804200
83.68846893310547,85.27999877929688,2015-10-13 13:30:00,86.29000091552734,84.75,85.12999725341797,5605900
84.34480285644531,85.77999877929688,2015-10-14 13:30:00,86.13999938964844,84.76000213623047,84.98999786376953,3325400
85.68204498291016,87.13999938964844,2015-10-15 13:30:00,87.16000366210938,84.93000030517578,85.30000305175781,3609900
86.03601837158203,87.5,2015-10-16 13:30:00,88.0,86.55999755859375,87.75,4128500
83.39102172851562,84.80999755859375,2015-10-19 13:30:00,86.47000122070312,84.11000061035156,86.2699966430664,4256500
83.45001983642578,84.87000274658203,2015-10-20 13:30:00,85.6500015258789,83.94999694824219,84.56999969482422,3543100
82.37825775146484,83.77999877929688,2015-10-21 13:30:00,84.69999694824219,83.41000366210938,84.44000244140625,3005600
84.36446380615234,85.80000305175781,2015-10-22 13:30:00,86.16999816894531,84.37000274658203,84.62999725341797,2901100
84.00065612792969,85.43000030517578,2015-10-23 13:30:00,86.08999633789062,84.31999969482422,85.08999633789062,2674900
81.99478912353516,83.38999938964844,2015-10-26 13:30:00,85.29000091552734,83.25,85.0999984741211,3496500
81.31632995605469,82.69999694824219,2015-10-27 13:30:00,82.94999694824219,80.05000305175781,81.83999633789062,5147700
83.3713607788086,84.79000091552734,2015-10-28 13:30:00,86.16999816894531,82.3499984741211,82.9800033569336,3830000
84.08914184570312,85.5199966430664,2015-10-29 13:30:00,85.9000015258789,84.12999725341797,84.31999969482422,2819600
84.41362762451172,85.8499984741211,2015-10-30 13:30:00,86.68000030517578,84.37000274658203,85.77999877929688,3161600
84.62995910644531,86.06999969482422,2015-11-02 14:30:00,86.5,84.70999908447266,85.13999938964844,3597500
86.9701156616211,88.44999694824219,2015-11-03 14:30:00,89.5199966430664,86.27999877929688,86.9000015258789,5513900
85.02326202392578,86.47000122070312,2015-11-04 14:30:00,88.95999908447266,85.75,88.4800033569336,3892800
85.02326202392578,86.47000122070312,2015-11-05 14:30:00,88.22000122070312,85.44999694824219,86.27999877929688,4033800
83.84333038330078,85.2699966430664,2015-11-06 14:30:00,88.48999786376953,84.2300033569336,85.41000366210938,5272300
83.941650390625,85.37000274658203,2015-11-09 14:30:00,87.18000030517578,84.48999786376953,85.94000244140625,3849900
85.13140106201172,86.58000183105469,2015-11-10 14:30:00,86.87999725341797,84.72000122070312,85.22000122070312,3909700
81.92594909667969,83.31999969482422,2015-11-11 14:30:00,87.9000015258789,83.19000244140625,86.3499984741211,3545500
80.32322692871094,81.69000244140625,2015-11-12 14:30:00,82.75,80.93000030517578,82.33999633789062,3436700
80.87387084960938,82.25,2015-11-13 14:30:00,82.94999694824219,80.5,81.6500015258789,3111800
83.3713607788086,84.79000091552734,2015-11-16 14:30:00,84.86000061035156,82.0,82.44000244140625,3052700
81.59164428710938,82.9800033569336,2015-11-17 14:30:00,84.30999755859375,81.93000030517578,84.29000091552734,3290100
83.72533416748047,85.1500015258789,2015-11-18 14:30:00,85.26000213623047,82.94999694824219,83.83999633789062,3200900
81.26718139648438,82.6500015258789,2015-11-19 14:30:00,84.63999938964844,81.73999786376953,84.26000213623047,2797900
81.24749755859375,82.62999725341797,2015-11-20 14:30:00,83.2699966430664,81.9800033569336,83.0,2980700
81.1884994506836,82.56999969482422,2015-11-23 14:30:00,83.37999725341797,82.05999755859375,82.36000061035156,2718700
83.71549987792969,85.13999938964844,2015-11-24 14:30:00,85.6500015258789,83.16000366210938,83.30000305175781,4420900
82.13243865966797,83.52999877929688,2015-11-25 14:30:00,84.62999725341797,83.19999694824219,84.23999786376953,3037000
80.647705078125,82.0199966430664,2015-11-27 14:30:00,83.2699966430664,81.9000015258789,82.87999725341797,1446600
82.03411865234375,83.43000030517578,2015-11-30 14:30:00,84.63999938964844,82.19999694824219,82.41000366210938,3833500
82.64374542236328,84.05000305175781,2015-12-01 14:30:00,84.12999725341797,83.0199966430664,83.44999694824219,2584200
79.50711059570312,80.86000061035156,2015-12-02 14:30:00,84.05999755859375,80.41000366210938,83.33000183105469,4543300
79.63494873046875,80.98999786376953,2015-12-03 14:30:00,82.4800033569336,80.25,81.63999938964844,4675000
79.14330291748047,80.48999786376953,2015-12-04 14:30:00,80.83999633789062,78.5,79.29000091552734,4754200
74.9152603149414,76.19000244140625,2015-12-07 14:30:00,78.4000015258789,74.55000305175781,77.87999725341797,6354500
75.81986236572266,77.11000061035156,2015-12-08 14:30:00,77.87999725341797,73.93000030517578,74.72000122070312,5336800
77.068603515625,78.37999725341797,2015-12-09 14:30:00,80.4000015258789,76.87999725341797,77.47000122070312,5377100
76.87195587158203,78.18000030517578,2015-12-10 14:30:00,80.1500015258789,77.4000015258789,77.83999633789062,5016800
73.63700866699219,74.88999938964844,2015-12-11 14:30:00,79.43000030517578,74.76000213623047,77.31999969482422,4962000
75.57403564453125,76.86000061035156,2015-12-14 14:30:00,77.02999877929688,73.72000122070312,74.36000061035156,5827000
76.00668334960938,77.30000305175781,2015-12-15 14:30:00,78.66000366210938,76.9800033569336,77.97000122070312,5701000
74.53178405761719,75.80000305175781,2015-12-16 14:30:00,77.62000274658203,75.72000122070312,77.29000091552734,4961300
72.07360076904297,73.30000305175781,2015-12-17 14:30:00,75.9800033569336,71.93000030517578,75.47000122070312,6110000
70.2348861694336,71.43000030517578,2015-12-18 14:30:00,73.87000274658203,71.41000366210938,73.19000244140625,6633800
69.07463836669922,70.25,2015-12-21 14:30:00,71.8499984741211,69.30000305175781,71.5999984741211,5078800
68.6419906616211,69.80999755859375,2015-12-22 14:30:00,71.58000183105469,69.58000183105469,70.33000183105469,5185800
72.45706939697266,73.69000244140625,2015-12-23 14:30:00,73.76000213623047,70.79000091552734,71.4000015258789,5352700
72.19159698486328,73.41999816894531,2015-12-24 14:30:00,73.9800033569336,72.6500015258789,73.75,1792900
69.31062316894531,70.48999786376953,2015-12-28 14:30:00,71.9800033569336,70.20999908447266,71.76000213623047,3960600
69.90058135986328,71.08999633789062,2015-12-29 14:30:00,72.33000183105469,70.55000305175781,71.87999725341797,3168400
69.42860412597656,70.61000061035156,2015-12-30 14:30:00,71.08999633789062,69.73999786376953,69.80000305175781,3354700
69.60559844970703,70.79000091552734,2015-12-31 14:30:00,71.58999633789062,70.0,70.11000061035156,3117300
68.51416778564453,69.68000030517578,2016-01-04 14:30:00,71.0,68.83000183105469,70.80000305175781,5136700
68.9566421508789,70.12999725341797,2016-01-05 14:30:00,70.54000091552734,68.56999969482422,70.05999755859375,3665200
66.19364929199219,67.31999969482422,2016-01-06 14:30:00,68.5,66.69999694824219,68.5,6626700
64.36477661132812,65.45999908447266,2016-01-07 14:30:00,69.01000213623047,65.19000244140625,65.91999816894531,5297900
64.42377471923828,65.5199966430664,2016-01-08 14:30:00,66.43000030517578,64.7699966430664,65.86000061035156,4990100
62.60471725463867,63.66999816894531,2016-01-11 14:30:00,66.05999755859375,62.91999816894531,65.87999725341797,5356600
61.86727523803711,62.91999816894531,2016-01-12 14:30:00,65.18000030517578,61.349998474121094,64.6500015258789,7124500
63.264774322509766,64.16999816894531,2016-01-13 14:30:00,64.66000366210938,62.59000015258789,63.41999816894531,7745400
64.33940124511719,65.26000213623047,2016-01-14 14:30:00,66.61000061035156,63.61000061035156,64.66999816894531,7134900
62.081703186035156,62.970001220703125,2016-01-15 14:30:00,64.0199966430664,61.0099983215332,62.0099983215332,5870600
60.11977767944336,60.97999954223633,2016-01-19 14:30:00,63.630001068115234,59.47999954223633,63.150001525878906,5477000
59.390220642089844,60.2400016784668,2016-01-20 14:30:00,60.880001068115234,57.150001525878906,59.72999954223633,10621600
62.850704193115234,63.75,2016-01-21 14:30:00,64.25,59.40999984741211,60.2400016784668,7403900
65.08867645263672,66.0199966430664,2016-01-22 14:30:00,67.48999786376953,64.66999816894531,66.44000244140625,6827100
60.72117614746094,61.59000015258789,2016-01-25 14:30:00,66.1500015258789,61.5099983215332,64.62000274658203,4969200
65.0985336303711,66.02999877929688,2016-01-26 14:30:00,66.12999725341797,62.290000915527344,63.0,6782200
65.13797760009766,66.06999969482422,2016-01-27 14:30:00,67.93000030517578,64.48999786376953,65.08999633789062,7071300
67.661865234375,68.62999725341797,2016-01-28 14:30:00,69.79000091552734,66.6500015258789,69.2300033569336,6737700
70.01813507080078,71.0199966430664,2016-01-29 14:30:00,71.18000030517578,69.0199966430664,69.16999816894531,6883200
68.11537170410156,69.08999633789062,2016-02-01 14:30:00,70.0,67.69000244140625,69.30000305175781,4489100
66.21260833740234,67.16000366210938,2016-02-02 14:30:00,69.37000274658203,66.0,67.01000213623047,5463600
69.19986724853516,70.19000244140625,2016-02-03 14:30:00,70.2699966430664,66.31999969482422,68.61000061035156,5381200
67.47454833984375,68.44000244140625,2016-02-04 14:30:00,71.38999938964844,68.13999938964844,70.66999816894531,5131400
66.11400604248047,67.05999755859375,2016-02-05 14:30:00,67.68000030517578,65.62000274658203,67.68000030517578,5514400
67.46467590332031,68.43000030517578,2016-02-08 14:30:00,68.80000305175781,64.75,65.66000366210938,6274500
64.66475677490234,65.58999633789062,2016-02-09 14:30:00,67.97000122070312,64.33999633789062,67.20999908447266,6324800
64.86193084716797,65.79000091552734,2016-02-10 14:30:00,66.77999877929688,63.90999984741211,65.44999694824219,4302100
64.63516235351562,65.55999755859375,2016-02-11 14:30:00,65.98999786376953,63.060001373291016,63.619998931884766,5413000
66.7449722290039,67.69999694824219,2016-02-12 14:30:00,68.76000213623047,65.9800033569336,66.81999969482422,5476800
66.93229675292969,67.88999938964844,2016-02-16 14:30:00,69.08999633789062,66.25,68.7699966430664,3747900
69.82096862792969,70.81999969482422,2016-02-17 14:30:00,70.94000244140625,67.5999984741211,69.0,6288200
68.48015594482422,69.45999908447266,2016-02-18 14:30:00,71.2300033569336,69.33999633789062,70.98999786376953,3668100
68.72663879394531,69.70999908447266,2016-02-19 14:30:00,69.7300033569336,68.05999755859375,68.61000061035156,3575100
71.19136810302734,72.20999908447266,2016-02-22 14:30:00,72.7699966430664,69.70999908447266,69.70999908447266,4684600
67.0604476928711,68.0199966430664,2016-02-23 14:30:00,71.75,67.6500015258789,71.69000244140625,4418700
68.53929901123047,69.5199966430664,2016-02-24 14:30:00,69.94000244140625,66.75,67.2300033569336,4151500
67.53368377685547,68.5,2016-02-25 14:30:00,70.30000305175781,67.16999816894531,69.19000244140625,5346600
66.54780578613281,67.5,2016-02-26 14:30:00,69.69999694824219,65.73999786376953,68.0,10600800
63.82673263549805,64.73999786376953,2016-02-29 14:30:00,67.55999755859375,64.72000122070312,67.41999816894531,7950300
64.10279083251953,65.0199966430664,2016-03-01 14:30:00,65.47000122070312,62.529998779296875,65.0999984741211,7542900
66.05484771728516,67.0,2016-03-02 14:30:00,67.12000274658203,64.13999938964844,64.94999694824219,5243400
68.27310943603516,69.25,2016-03-03 14:30:00,69.66999816894531,66.18000030517578,66.94999694824219,6637100
70.40264892578125,71.41000366210938,2016-03-04 14:30:00,71.5199966430664,68.73999786376953,69.91000366210938,7930800
74.4053726196289,75.47000122070312,2016-03-07 14:30:00,75.52999877929688,70.22000122070312,71.12000274658203,8446300
69.56463623046875,70.55999755859375,2016-03-08 14:30:00,74.83999633789062,70.4800033569336,74.6500015258789,6598900
71.24066162109375,72.26000213623047,2016-03-09 14:30:00,72.5,69.80999755859375,71.58999633789062,4693500
71.2505111694336,72.2699966430664,2016-03-10 14:30:00,72.86000061035156,70.30999755859375,71.16000366210938,4557300
74.11945343017578,75.18000030517578,2016-03-11 14:30:00,75.88999938964844,72.98999786376953,73.13999938964844,4282000
73.72510528564453,74.77999877929688,2016-03-14 13:30:00,75.44999694824219,73.29000091552734,73.70999908447266,3188400
72.57160186767578,73.61000061035156,2016-03-15 13:30:00,74.37000274658203,71.9000015258789,73.81999969482422,3910500
73.98143768310547,75.04000091552734,2016-03-16 13:30:00,75.2699966430664,72.69000244140625,74.37000274658203,4881800
75.42084503173828,76.5,2016-03-17 13:30:00,77.44999694824219,75.18000030517578,75.66000366210938,4675100
74.56311798095703,75.62999725341797,2016-03-18 13:30:00,77.69999694824219,74.62999725341797,77.5,7455600
74.88845825195312,75.95999908447266,2016-03-21 13:30:00,76.31999969482422,74.58999633789062,75.0199966430664,2899600
74.82929992675781,75.9000015258789,2016-03-22 13:30:00,77.25,75.37999725341797,75.38999938964844,2844300
73.29130554199219,74.33999633789062,2016-03-23 13:30:00,76.54000091552734,73.83999633789062,75.44999694824219,3840700
73.25189208984375,74.30000305175781,2016-03-24 13:30:00,74.91000366210938,72.31999969482422,72.41999816894531,3621400
73.47862243652344,74.52999877929688,2016-03-28 13:30:00,74.76000213623047,73.5199966430664,74.30000305175781,2628700
74.38565826416016,75.44999694824219,2016-03-29 13:30:00,75.63999938964844,73.13999938964844,73.16999816894531,3236900
72.62091827392578,73.66000366210938,2016-03-30 13:30:00,76.5,73.58999633789062,76.44000244140625,4136200
71.55614471435547,72.58000183105469,2016-03-31 13:30:00,74.41999816894531,72.37000274658203,73.4800033569336,5664700
71.02375793457031,72.04000091552734,2016-04-01 13:30:00,72.47000122070312,70.41000366210938,70.8499984741211,5143400
69.31816864013672,70.30999755859375,2016-04-04 13:30:00,72.62999725341797,70.11000061035156,72.4800033569336,3452600
69.54491424560547,70.54000091552734,2016-04-05 13:30:00,71.36000061035156,69.66000366210938,69.88999938964844,3467500
70.21531677246094,71.22000122070312,2016-04-06 13:30:00,71.70999908447266,69.76000213623047,70.68000030517578,4066500
70.44208526611328,71.44999694824219,2016-04-07 13:30:00,72.08000183105469,70.38999938964844,70.79000091552734,3017600
72.43358612060547,73.47000122070312,2016-04-08 13:30:00,73.5,72.44000244140625,73.37000274658203,3215900
72.96595764160156,74.01000213623047,2016-04-11 13:30:00,74.77999877929688,73.69999694824219,73.87999725341797,3457500
76.41659545898438,77.51000213623047,2016-04-12 13:30:00,77.83000183105469,73.54000091552734,74.45999908447266,5516200
76.84884643554688,77.77999877929688,2016-04-13 13:30:00,78.18000030517578,76.31999969482422,77.61000061035156,4629100
76.87849426269531,77.80999755859375,2016-04-14 13:30:00,78.62999725341797,77.0,78.02999877929688,2656500
74.80363464355469,75.70999908447266,2016-04-15 13:30:00,77.41999816894531,75.06999969482422,77.41999816894531,4868800
76.512939453125,77.44000244140625,2016-04-18 13:30:00,77.68000030517578,73.56999969482422,74.04000091552734,3570600
78.18268585205078,79.12999725341797,2016-04-19 13:30:00,80.18000030517578,77.69999694824219,78.5199966430664,3829900
78.4198226928711,79.37000274658203,2016-04-20 13:30:00,80.05999755859375,76.63999938964844,78.12999725341797,4066200
78.21233367919922,79.16000366210938,2016-04-21 13:30:00,80.29000091552734,78.70999908447266,79.37999725341797,3336600
79.95126342773438,80.91999816894531,2016-04-22 13:30:00,81.77999877929688,79.5,79.66999816894531,3157300
78.80516052246094,79.76000213623047,2016-04-25 13:30:00,80.5199966430664,79.04000091552734,80.38999938964844,2828100
81.78900146484375,82.77999877929688,2016-04-26 13:30:00,82.86000061035156,79.97000122070312,80.5199966430664,3654700
83.498291015625,84.51000213623047,2016-04-27 13:30:00,85.43000030517578,83.04000091552734,83.69000244140625,3795100
80.90966033935547,81.88999938964844,2016-04-28 13:30:00,84.75,81.5999984741211,83.8499984741211,3266000
81.63091278076172,82.62000274658203,2016-04-29 13:30:00,83.23999786376953,81.02999877929688,82.70999908447266,4570600
81.78900146484375,82.77999877929688,2016-05-02 13:30:00,83.05999755859375,80.68000030517578,82.33000183105469,4300700
79.66473388671875,80.62999725341797,2016-05-03 13:30:00,82.2300033569336,80.05000305175781,81.44000244140625,3808600
78.39018249511719,79.33999633789062,2016-05-04 13:30:00,82.0,78.80999755859375,80.61000061035156,3757600
80.28719329833984,81.26000213623047,2016-05-05 13:30:00,82.75,80.1500015258789,80.44000244140625,5206800
77.73808288574219,78.68000030517578,2016-05-06 13:30:00,81.6500015258789,78.08000183105469,78.83000183105469,5070700
77.69857025146484,78.63999938964844,2016-05-09 13:30:00,78.83000183105469,77.04000091552734,78.20999908447266,3002700
78.7755126953125,79.7300033569336,2016-05-10 13:30:00,79.8499984741211,78.70999908447266,78.7699966430664,4032100
79.35844421386719,80.31999969482422,2016-05-11 13:30:00,81.20999908447266,78.22000122070312,79.37999725341797,3192000
79.53630065917969,80.5,2016-05-12 13:30:00,81.8499984741211,79.55000305175781,81.38999938964844,2277400
77.70844268798828,78.6500015258789,2016-05-13 13:30:00,80.97000122070312,78.5999984741211,80.20999908447266,3219100
79.72402954101562,80.69000244140625,2016-05-16 13:30:00,81.41000366210938,79.63999938964844,79.63999938964844,2992800
80.59349822998047,81.56999969482422,2016-05-17 13:30:00,82.4800033569336,80.38999938964844,80.80000305175781,3952300
79.44738006591797,80.41000366210938,2016-05-18 13:30:00,82.1500015258789,79.87999725341797,81.36000061035156,2492800
79.12132263183594,80.08000183105469,2016-05-19 13:30:00,80.19000244140625,77.66000366210938,79.1500015258789,3798500
79.95126342773438,80.91999816894531,2016-05-20 13:30:00,81.30999755859375,79.54000091552734,80.58999633789062,3322800
80.29706573486328,81.2699966430664,2016-05-23 13:30:00,81.87000274658203,79.7300033569336,79.80000305175781,3193500
81.50247955322266,82.48999786376953,2016-05-24 13:30:00,83.08000183105469,80.6500015258789,81.79000091552734,3312900
82.08541107177734,83.08000183105469,2016-05-25 13:30:00,83.37999725341797,82.29000091552734,82.5,2895200
81.31475067138672,82.30000305175781,2016-05-26 13:30:00,83.94000244140625,82.20999908447266,83.55000305175781,2345600
80.59349822998047,81.56999969482422,2016-05-27 13:30:00,82.26000213623047,80.7699966430664,81.94000244140625,2100600
80.38600158691406,81.36000061035156,2016-05-31 13:30:00,82.4800033569336,81.08000183105469,82.02999877929688,3009200
79.78329467773438,80.75,2016-06-01 13:30:00,81.30999755859375,80.0,80.6500015258789,3337100
79.52641296386719,80.48999786376953,2016-06-02 13:30:00,80.58000183105469,79.19999694824219,79.95999908447266,2064600
78.75575256347656,79.70999908447266,2016-06-03 13:30:00,80.80000305175781,79.11000061035156,80.23999786376953,2134500
80.29706573486328,81.2699966430664,2016-06-06 13:30:00,81.41999816894531,79.97000122070312,80.61000061035156,2037300
84.39739990234375,85.41999816894531,2016-06-07 13:30:00,85.62999725341797,81.91000366210938,81.98999786376953,4369500
84.33811950683594,85.36000061035156,2016-06-08 13:30:00,86.87000274658203,85.13999938964844,86.5999984741211,3796800
83.56745147705078,84.58000183105469,2016-06-09 13:30:00,85.44000244140625,84.0,84.16999816894531,3588100
80.5835952758789,81.55999755859375,2016-06-10 13:30:00,84.33999633789062,81.33000183105469,83.31999969482422,2983600
80.41563415527344,81.38999938964844,2016-06-13 13:30:00,83.0999984741211,80.51000213623047,80.98999786376953,2283100
81.98661041259766,82.9800033569336,2016-06-14 13:30:00,83.05000305175781,81.06999969482422,81.22000122070312,2335700
81.45307159423828,82.44000244140625,2016-06-15 13:30:00,83.54000091552734,81.5,82.7300033569336,2150800
79.22013092041016,80.18000030517578,2016-06-16 13:30:00,81.3499984741211,79.33000183105469,81.25,3139800
79.92162322998047,80.88999938964844,2016-06-17 13:30:00,81.55000305175781,80.33999633789062,80.94999694824219,3280800
82.194091796875,83.19000244140625,2016-06-20 13:30:00,83.38999938964844,81.80999755859375,82.33000183105469,3215000
83.89349365234375,84.91000366210938,2016-06-21 13:30:00,85.22000122070312,82.83000183105469,82.98999786376953,3539800
82.59916687011719,83.5999984741211,2016-06-22 13:30:00,85.08999633789062,83.43000030517578,84.9000015258789,2415600
83.48841094970703,84.5,2016-06-23 13:30:00,84.97000122070312,83.97000122070312,84.76000213623047,2413200
80.08958435058594,81.05999755859375,2016-06-24 13:30:00,82.87999725341797,80.80999755859375,81.58000183105469,4942200
77.64915466308594,78.58999633789062,2016-06-27 13:30:00,80.80000305175781,78.11000061035156,80.0,4234100
80.77133178710938,81.75,2016-06-28 13:30:00,81.7699966430664,79.8499984741211,80.6500015258789,3105700
82.44109344482422,83.44000244140625,2016-06-29 13:30:00,84.01000213623047,82.41000366210938,82.80000305175781,2870300
82.42134094238281,83.41999816894531,2016-06-30 13:30:00,83.95999908447266,82.63999938964844,83.44000244140625,3364000
83.76506042480469,84.77999877929688,2016-07-01 13:30:00,85.7300033569336,83.37000274658203,83.77999877929688,2675400
81.76924896240234,82.76000213623047,2016-07-05 13:30:00,84.02999877929688,81.66999816894531,83.12000274658203,2704800
81.76924896240234,82.76000213623047,2016-07-06 13:30:00,83.11000061035156,81.86000061035156,82.02999877929688,2207300
80.63300323486328,81.61000061035156,2016-07-07 13:30:00,83.86000061035156,81.12000274658203,83.83000183105469,2119600
81.55187225341797,82.54000091552734,2016-07-08 13:30:00,83.06999969482422,81.56999969482422,82.83999633789062,1979500
81.90756225585938,82.9000015258789,2016-07-11 13:30:00,83.88999938964844,82.5999984741211,82.94000244140625,1689200
84.1207504272461,85.13999938964844,2016-07-12 13:30:00,85.95999908447266,84.13999938964844,84.55000305175781,2860700
82.99959564208984,83.83999633789062,2016-07-13 13:30:00,85.06999969482422,82.62000274658203,84.58999633789062,2812000
83.78168487548828,84.62999725341797,2016-07-14 13:30:00,84.93000030517578,83.87999725341797,84.83999633789062,2018100
83.25698852539062,84.0999984741211,2016-07-15 13:30:00,84.9000015258789,83.63999938964844,84.51000213623047,2473800
82.4155044555664,83.25,2016-07-18 13:30:00,84.30999755859375,82.73999786376953,83.91999816894531,1864800
81.21764373779297,82.04000091552734,2016-07-19 13:30:00,83.1500015258789,81.86000061035156,82.87000274658203,2173800
81.28694152832031,82.11000061035156,2016-07-20 13:30:00,82.86000061035156,80.91999816894531,81.52999877929688,2156700
80.67315673828125,81.48999786376953,2016-07-21 13:30:00,83.45999908447266,81.19999694824219,82.1500015258789,1825300
80.16827392578125,80.9800033569336,2016-07-22 13:30:00,82.19999694824219,80.19000244140625,82.05000305175781,2620100
77.96061706542969,78.75,2016-07-25 13:30:00,80.55999755859375,78.19000244140625,80.37999725341797,4280300
79.6435775756836,80.44999694824219,2016-07-26 13:30:00,80.44999694824219,78.04000091552734,78.47000122070312,2548000
78.98028564453125,79.77999877929688,2016-07-27 13:30:00,81.94999694824219,79.6500015258789,80.76000213623047,3439900
79.0990982055664,79.9000015258789,2016-07-28 13:30:00,80.70999908447266,79.25,79.73999786376953,2537400
80.88105010986328,81.69999694824219,2016-07-29 13:30:00,81.88999938964844,78.86000061035156,79.0,2886900
77.91112518310547,78.69999694824219,2016-08-01 13:30:00,81.12999725341797,78.26000213623047,81.04000091552734,3591800
79.08919525146484,79.88999938964844,2016-08-02 13:30:00,80.36000061035156,78.5199966430664,79.37000274658203,3039100
81.54434204101562,82.37000274658203,2016-08-03 13:30:00,82.41999816894531,79.66999816894531,80.0,3036500
83.39558410644531,84.23999786376953,2016-08-04 13:30:00,84.30000305175781,81.5999984741211,82.02999877929688,4178700
89.25625610351562,90.16000366210938,2016-08-05 13:30:00,90.7699966430664,86.75,87.2300033569336,8928300
89.75123596191406,90.66000366210938,2016-08-08 13:30:00,92.0,90.47000122070312,90.97000122070312,4506100
89.47403717041016,90.37999725341797,2016-08-09 13:30:00,91.38999938964844,89.9000015258789,91.29000091552734,3064200
88.52366638183594,89.41999816894531,2016-08-10 13:30:00,90.87000274658203,89.19999694824219,90.87000274658203,2664100
89.37506103515625,90.27999877929688,2016-08-11 13:30:00,91.1500015258789,89.08000183105469,90.06999969482422,3437900
90.28582763671875,91.19999694824219,2016-08-12 13:30:00,91.41999816894531,90.0,90.6500015258789,1912000
89.64234161376953,90.55000305175781,2016-08-15 13:30:00,91.97000122070312,90.54000091552734,91.51000213623047,2794100
89.3552474975586,90.26000213623047,2016-08-16 13:30:00,90.80000305175781,88.83999633789062,90.19000244140625,2463400
89.31564331054688,90.22000122070312,2016-08-17 13:30:00,90.66000366210938,89.30000305175781,89.80999755859375,3160400
90.8105239868164,91.7300033569336,2016-08-18 13:30:00,92.0999984741211,90.29000091552734,90.81999969482422,4122200
90.84021759033203,91.76000213623047,2016-08-19 13:30:00,91.94000244140625,90.66000366210938,91.16999816894531,2338600
90.2561264038086,91.16999816894531,2016-08-22 13:30:00,91.83999633789062,90.2699966430664,90.83000183105469,2276100
90.29573059082031,91.20999908447266,2016-08-23 13:30:00,91.8499984741211,90.70999908447266,90.7300033569336,2986400
89.82054138183594,90.7300033569336,2016-08-24 13:30:00,91.4000015258789,90.55999755859375,90.7699966430664,2329200
89.34534454345703,90.25,2016-08-25 13:30:00,90.8499984741211,90.0,90.69999694824219,1929900
89.27605438232422,90.18000030517578,2016-08-26 13:30:00,91.51000213623047,89.91999816894531,90.7300033569336,1641100
90.22643280029297,91.13999938964844,2016-08-29 13:30:00,91.33000183105469,89.61000061035156,89.9800033569336,2204000
89.16714477539062,90.06999969482422,2016-08-30 13:30:00,91.69000244140625,89.63999938964844,91.2699966430664,1618400
87.60299682617188,88.48999786376953,2016-08-31 13:30:00,89.9000015258789,88.0199966430664,89.76000213623047,2709100
87.66239166259766,88.55000305175781,2016-09-01 13:30:00,88.63999938964844,87.44000244140625,88.30999755859375,2420700
88.01879119873047,88.91000366210938,2016-09-02 13:30:00,89.5,88.69000244140625,89.2699966430664,1938400
93.87944030761719,94.83000183105469,2016-09-06 13:30:00,95.19999694824219,90.05999755859375,90.25,7421600
93.37455749511719,94.31999969482422,2016-09-07 13:30:00,95.16000366210938,94.04000091552734,94.77999877929688,4271500
94.47341918945312,95.43000030517578,2016-09-08 13:30:00,95.93000030517578,94.16000366210938,95.18000030517578,3691200
91.7212905883789,92.6500015258789,2016-09-09 13:30:00,94.87000274658203,92.62000274658203,94.36000061035156,3013300
92.04798889160156,92.9800033569336,2016-09-12 13:30:00,93.52999877929688,91.3499984741211,92.05000305175781,2498800
89.49385070800781,90.4000015258789,2016-09-13 13:30:00,92.12999725341797,89.52999877929688,91.61000061035156,3985900
87.56339263916016,88.44999694824219,2016-09-14 13:30:00,90.81999969482422,88.16999816894531,89.87999725341797,3673700
90.03833770751953,90.94999694824219,2016-09-15 13:30:00,92.38999938964844,88.48999786376953,88.8499984741211,3931800
90.0581283569336,90.97000122070312,2016-09-16 13:30:00,91.45999908447266,89.2699966430664,89.54000091552734,4559700
89.1473617553711,90.05000305175781,2016-09-19 13:30:00,91.87000274658203,90.0199966430664,91.66000366210938,3738100
89.49385070800781,90.4000015258789,2016-09-20 13:30:00,91.8499984741211,90.04000091552734,90.16000366210938,3049400
92.58256530761719,93.5199966430664,2016-09-21 13:30:00,93.79000091552734,91.0999984741211,91.55999755859375,3188900
91.68168640136719,92.61000061035156,2016-09-22 13:30:00,95.0,92.43000030517578,94.61000061035156,3047100
88.85034942626953,89.75,2016-09-23 13:30:00,92.36000061035156,89.4000015258789,92.25,3679800
88.36528015136719,89.26000213623047,2016-09-26 13:30:00,90.62999725341797,89.01000213623047,90.22000122070312,2131500
87.67227935791016,88.55999755859375,2016-09-27 13:30:00,89.0,87.18000030517578,88.1500015258789,2939000
93.01815795898438,93.95999908447266,2016-09-28 13:30:00,94.58000183105469,88.56999969482422,89.45999908447266,4533800
94.09722900390625,95.05000305175781,2016-09-29 13:30:00,95.94000244140625,93.13999938964844,94.27999877929688,4486500
95.7406005859375,96.70999908447266,2016-09-30 13:30:00,97.19999694824219,94.69000244140625,95.55000305175781,4006500
95.14659881591797,96.11000061035156,2016-10-03 13:30:00,96.70999908447266,95.05999755859375,96.2699966430664,2318600
94.18633270263672,95.13999938964844,2016-10-04 13:30:00,96.37000274658203,94.51000213623047,96.31999969482422,1724700
96.40387725830078,97.37999725341797,2016-10-05 13:30:00,98.31999969482422,96.08999633789062,96.37000274658203,3284500
96.16629028320312,97.13999938964844,2016-10-06 13:30:00,98.05999755859375,96.38999938964844,97.55000305175781,1789700
95.47330474853516,96.44000244140625,2016-10-07 13:30:00,97.33000183105469,96.05000305175781,96.87999725341797,1742900
96.31477355957031,97.29000091552734,2016-10-10 13:30:00,98.0999984741211,97.12999725341797,97.27999877929688,1951300
95.08721160888672,96.05000305175781,2016-10-11 13:30:00,97.06999969482422,95.72000122070312,96.75,2099900
95.33470153808594,96.30000305175781,2016-10-12 13:30:00,96.76000213623047,95.1500015258789,95.87999725341797,2415800
94.70745086669922,95.5,2016-10-13 13:30:00,95.93000030517578,93.98999786376953,95.43000030517578,2252400
93.69593048095703,94.4800033569336,2016-10-14 13:30:00,96.2699966430664,93.91000366210938,96.2699966430664,2526800
93.0017318725586,93.77999877929688,2016-10-17 13:30:00,94.94999694824219,93.05000305175781,94.45999908447266,2100100
92.35712432861328,93.12999725341797,2016-10-18 13:30:00,95.16000366210938,92.94000244140625,94.95999908447266,2729500
94.27111053466797,95.05999755859375,2016-10-19 13:30:00,96.18000030517578,94.0,94.26000213623047,3163600
94.12236022949219,94.91000366210938,2016-10-20 13:30:00,95.5,93.7699966430664,93.97000122070312,2472200
93.10090637207031,93.87999725341797,2016-10-21 13:30:00,95.0199966430664,93.63999938964844,94.19000244140625,2729600
92.84306335449219,93.62000274658203,2016-10-24 13:30:00,94.66999816894531,92.27999877929688,93.9800033569336,2569000
91.90093994140625,92.66999816894531,2016-10-25 13:30:00,94.19000244140625,92.56999969482422,93.4800033569336,1429100
91.3753433227539,92.13999938964844,2016-10-26 13:30:00,93.0999984741211,90.37999725341797,91.8499984741211,3286400
90.97865295410156,91.73999786376953,2016-10-27 13:30:00,92.88999938964844,91.30000305175781,92.51000213623047,3581300
90.04646301269531,90.80000305175781,2016-10-28 13:30:00,94.08999633789062,90.68000030517578,91.6500015258789,3269800
89.66962432861328,90.41999816894531,2016-10-31 13:30:00,91.2300033569336,90.18000030517578,90.66000366210938,2406900
90.40347290039062,91.16000366210938,2016-11-01 13:30:00,92.22000122070312,89.9000015258789,91.31999969482422,2496000
90.185302734375,90.94000244140625,2016-11-02 13:30:00,91.79000091552734,88.94000244140625,89.91000366210938,3302600
91.31583404541016,92.08000183105469,2016-11-03 13:30:00,92.87999725341797,90.58999633789062,90.87999725341797,4157900
91.03816986083984,91.80000305175781,2016-11-04 13:30:00,96.0,91.51000213623047,94.87000274658203,6775100
92.6546401977539,93.43000030517578,2016-11-07 14:30:00,93.5999984741211,92.20999908447266,93.5999984741211,2988200
92.58521270751953,93.36000061035156,2016-11-08 14:30:00,94.0999984741211,92.56999969482422,92.9000015258789,2382200
92.6546401977539,93.43000030517578,2016-11-09 14:30:00,94.66999816894531,92.5199966430664,93.3499984741211,4685900
91.86126708984375,92.62999725341797,2016-11-10 14:30:00,93.69999694824219,92.05999755859375,92.63999938964844,2983000
90.65139770507812,91.41000366210938,2016-11-11 14:30:00,92.54000091552734,90.12000274658203,92.06999969482422,2340300
91.9108657836914,92.68000030517578,2016-11-14 14:30:00,92.80000305175781,90.08999633789062,91.19000244140625,2458300
93.7851791381836,94.56999969482422,2016-11-15 14:30:00,94.98999786376953,93.05000305175781,94.02999877929688,8288400
94.42977905273438,95.22000122070312,2016-11-16 14:30:00,96.0199966430664,94.05000305175781,94.51000213623047,4101100
91.57368469238281,92.33999633789062,2016-11-17 14:30:00,96.58000183105469,92.04000091552734,96.0999984741211,5877700
92.376953125,93.1500015258789,2016-11-18 14:30:00,94.27999877929688,92.37999725341797,92.75,2755400
94.87603759765625,95.66999816894531,2016-11-21 14:30:00,97.0,94.86000061035156,95.0,4642400
94.47936248779297,95.2699966430664,2016-11-22 14:30:00,96.19999694824219,93.41999816894531,95.79000091552734,3867800
96.19500732421875,97.0,2016-11-23 14:30:00,97.69999694824219,94.63999938964844,94.79000091552734,2675500
95.1834716796875,95.9800033569336,2016-11-25 14:30:00,96.80999755859375,95.19000244140625,96.38999938964844,1518300
92.69429779052734,93.47000122070312,2016-11-28 14:30:00,96.83999633789062,93.2699966430664,96.63999938964844,3031200
91.6728515625,92.44000244140625,2016-11-29 14:30:00,93.37999725341797,90.0,91.5999984741211,4010400
101.66919708251953,102.5199966430664,2016-11-30 14:30:00,103.06999969482422,97.08999633789062,97.30999755859375,10121000
103.88069152832031,104.75,2016-12-01 14:30:00,107.47000122070312,103.8499984741211,105.70999908447266,6505300
102.87907409667969,103.73999786376953,2016-12-02 14:30:00,105.47000122070312,103.38999938964844,104.80999755859375,4078300
103.59310150146484,104.45999908447266,2016-12-05 14:30:00,106.80999755859375,104.31999969482422,104.87999725341797,5883900
103.10716247558594,103.97000122070312,2016-12-06 14:30:00,105.30000305175781,102.55999755859375,103.5199966430664,3539700
102.67080688476562,103.52999877929688,2016-12-07 14:30:00,104.97000122070312,102.69000244140625,103.91999816894531,3777700
104.05919647216797,104.93000030517578,2016-12-08 14:30:00,105.25,102.36000061035156,104.02999877929688,6189100
105.56658172607422,106.44999694824219,2016-12-09 14:30:00,106.98999786376953,105.3499984741211,105.58999633789062,4049600
104.95173645019531,105.83000183105469,2016-12-12 14:30:00,109.37000274658203,105.19000244140625,109.0999984741211,5758500
107.11363983154297,108.01000213623047,2016-12-13 14:30:00,109.12999725341797,105.80000305175781,107.0,3912600
103.34516906738281,104.20999908447266,2016-12-14 14:30:00,107.47000122070312,104.08000183105469,106.69000244140625,4010300
103.05757904052734,103.91999816894531,2016-12-15 14:30:00,105.05000305175781,102.54000091552734,103.02999877929688,4646800
103.13692474365234,104.0,2016-12-16 14:30:00,104.58999633789062,102.79000091552734,104.08999633789062,8692900
102.62123107910156,103.4800033569336,2016-12-19 14:30:00,104.4000015258789,103.12999725341797,104.2699966430664,2238900
102.30389404296875,103.16000366210938,2016-12-20 14:30:00,104.33999633789062,102.70999908447266,104.19999694824219,2383100
101.6989517211914,102.55000305175781,2016-12-21 14:30:00,103.86000061035156,102.33000183105469,103.75,2364900
102.27413177490234,103.12999725341797,2016-12-22 14:30:00,103.33000183105469,101.87000274658203,102.66999816894531,2722400
101.18326568603516,102.02999877929688,2016-12-23 14:30:00,103.04000091552734,101.62000274658203,102.69999694824219,1706200
101.68904113769531,102.54000091552734,2016-12-27 14:30:00,103.12000274658203,102.31999969482422,102.81999969482422,1410800
100.8064193725586,101.6500015258789,2016-12-28 14:30:00,102.83000183105469,101.3499984741211,102.48999786376953,1896100
100.43948364257812,101.27999877929688,2016-12-29 14:30:00,101.94999694824219,100.54000091552734,101.5999984741211,1516700
100.26097869873047,101.0999984741211,2016-12-30 14:30:00,102.18000030517578,100.7300033569336,101.1500015258789,2178200
102.68073272705078,103.54000091552734,2017-01-03 14:30:00,104.62999725341797,101.83000183105469,102.62999725341797,4151200
102.76007843017578,103.62000274658203,2017-01-04 14:30:00,104.47000122070312,102.97000122070312,104.25,2417900
103.31542205810547,104.18000030517578,2017-01-05 14:30:00,104.8499984741211,103.41999816894531,103.62999725341797,3084800
104.33687591552734,105.20999908447266,2017-01-06 14:30:00,105.70999908447266,103.70999908447266,104.61000061035156,2418300
102.16504669189453,103.0199966430664,2017-01-09 14:30:00,104.58000183105469,102.81999969482422,104.31999969482422,3380300
102.54190063476562,103.4000015258789,2017-01-10 14:30:00,104.4000015258789,102.87000274658203,103.2300033569336,2913800
104.04927062988281,104.91999816894531,2017-01-11 14:30:00,105.04000091552734,102.7300033569336,103.55999755859375,3542900
104.66263580322266,105.37000274658203,2017-01-12 14:30:00,106.51000213623047,104.83999633789062,105.51000213623047,4671700
104.68250274658203,105.38999938964844,2017-01-13 14:30:00,106.08000183105469,104.2699966430664,104.83999633789062,2580500
104.77189636230469,105.4800033569336,2017-01-17 14:30:00,106.76000213623047,105.44999694824219,105.94999694824219,3879100
104.69243621826172,105.4000015258789,2017-01-18 14:30:00,105.70999908447266,104.7300033569336,105.33999633789062,2527500
104.48385620117188,105.19000244140625,2017-01-19 14:30:00,106.20999908447266,104.45999908447266,105.5,2425800
104.761962890625,105.47000122070312,2017-01-20 14:30:00,106.79000091552734,105.30000305175781,106.2300033569336,2488100
102.76544952392578,103.45999908447266,2017-01-23 14:30:00,105.0999984741211,103.33999633789062,104.72000122070312,3045500
102.9839859008789,103.68000030517578,2017-01-24 14:30:00,104.62000274658203,102.91000366210938,104.48999786376953,2680500
103.20250701904297,103.9000015258789,2017-01-25 14:30:00,104.38999938964844,103.23999786376953,103.62999725341797,2798100
103.68921661376953,104.38999938964844,2017-01-26 14:30:00,105.26000213623047,103.9000015258789,104.0999984741211,2772600
102.20922088623047,102.9000015258789,2017-01-27 14:30:00,104.16000366210938,102.77999877929688,104.16000366210938,2343600
100.52062225341797,101.19999694824219,2017-01-30 14:30:00,102.76000213623047,99.56999969482422,102.19000244140625,2975600
100.89807891845703,101.58000183105469,2017-01-31 14:30:00,101.62000274658203,100.0999984741211,101.3499984741211,2447500
100.32197570800781,101.0,2017-02-01 14:30:00,102.62999725341797,100.05000305175781,102.19000244140625,3028500
99.04063415527344,99.70999908447266,2017-02-02 14:30:00,101.4800033569336,98.94000244140625,101.13999938964844,5064400
100.26237487792969,100.94000244140625,2017-02-03 14:30:00,102.18000030517578,99.20999908447266,99.68000030517578,3520900
99.03069305419922,99.69999694824219,2017-02-06 14:30:00,101.05000305175781,99.43000030517578,101.0,1802400
96.53755187988281,97.19000244140625,2017-02-07 14:30:00,99.5,95.2699966430664,99.25,5158000
97.48117065429688,98.13999938964844,2017-02-08 14:30:00,98.48999786376953,95.27999877929688,96.5999984741211,3445400
99.13996124267578,99.80999755859375,2017-02-09 14:30:00,100.29000091552734,98.13999938964844,98.13999938964844,2927000
100.75901794433594,101.44000244140625,2017-02-10 14:30:00,102.02999877929688,100.56999969482422,101.2300033569336,3089000
99.67633819580078,100.3499984741211,2017-02-13 14:30:00,101.37999725341797,100.13999938964844,100.91000366210938,1944900
100.55043029785156,101.2300033569336,2017-02-14 14:30:00,101.4800033569336,99.0199966430664,100.33000183105469,3861200
100.07365417480469,100.75,2017-02-15 14:30:00,101.47000122070312,100.3499984741211,100.91000366210938,2094000
99.4975357055664,100.16999816894531,2017-02-16 14:30:00,101.4800033569336,99.83999633789062,101.05999755859375,3154100
98.36519622802734,99.02999877929688,2017-02-17 14:30:00,100.0199966430664,98.43000030517578,99.91000366210938,3023200
98.80224609375,99.47000122070312,2017-02-21 14:30:00,100.8499984741211,99.43000030517578,100.41000366210938,2737200
96.8752670288086,97.52999877929688,2017-02-22 14:30:00,99.19999694824219,97.45999908447266,98.76000213623047,2596500
96.91500091552734,97.56999969482422,2017-02-23 14:30:00,99.19000244140625,96.55000305175781,99.19000244140625,3211800
95.65353393554688,96.30000305175781,2017-02-24 14:30:00,97.5,95.6500015258789,96.5199966430664,3590300
97.25271606445312,97.91000366210938,2017-02-27 14:30:00,98.2300033569336,96.30000305175781,96.77999877929688,5156900
96.33888244628906,96.98999786376953,2017-02-28 14:30:00,99.55000305175781,95.29000091552734,99.5,6369300
