Adj Close,Close,Date,High,Low,Open,Volume
63.75107955932617,69.2750015258789,2013-01-02 14:30:00,70.20500183105469,68.70999908447266,69.16999816894531,6377600
63.38294982910156,68.875,2013-01-03 14:30:00,69.48500061035156,68.58999633789062,69.34500122070312,5271400
64.17437744140625,69.73500061035156,2013-01-04 14:30:00,69.80500030517578,68.625,69.0,3902400
63.61763000488281,69.12999725341797,2013-01-07 14:30:00,69.63500213623047,68.54000091552734,69.56999969482422,5349000
64.52408599853516,70.11499786376953,2013-01-08 14:30:00,70.23999786376953,68.0999984741211,69.1449966430664,9107000
65.06241607666016,70.69999694824219,2013-01-09 14:30:00,71.37000274658203,70.23999786376953,70.34500122070312,6973400
65.232666015625,70.88500213623047,2013-01-10 14:30:00,71.19000244140625,69.99500274658203,71.12999725341797,6312400
65.3845443725586,71.05000305175781,2013-01-11 14:30:00,71.43499755859375,70.45999908447266,70.91500091552734,5700400
64.89218139648438,70.51499938964844,2013-01-14 14:30:00,71.375,70.0,70.25,5870600
64.482666015625,70.06999969482422,2013-01-15 14:30:00,70.75,69.6500015258789,69.94000244140625,4872800
64.01792907714844,69.56500244140625,2013-01-16 14:30:00,69.84500122070312,68.5,69.72000122070312,9656600
65.32930755615234,70.98999786376953,2013-01-17 14:30:00,71.375,69.55999755859375,69.76499938964844,8565000
65.6744155883789,71.36499786376953,2013-01-18 14:30:00,71.75,68.875,70.73500061035156,11176800
65.69281768798828,71.38500213623047,2013-01-22 14:30:00,71.87000274658203,70.5199966430664,71.3949966430664,11673200
65.9873046875,71.70500183105469,2013-01-23 14:30:00,71.88500213623047,70.93000030517578,71.18000030517578,23592400
66.24956512451172,71.98999786376953,2013-01-24 14:30:00,73.05500030517578,71.26499938964844,71.5,20920000
66.35540771484375,72.1050033569336,2013-01-25 14:30:00,73.99500274658203,71.33499908447266,72.5,26017800
64.41825866699219,70.0,2013-01-28 14:30:00,70.875,68.58499908447266,69.3499984741211,16384600
64.90599822998047,70.52999877929688,2013-01-29 14:30:00,70.6500015258789,69.56500244140625,70.0,10351800
64.52408599853516,70.11499786376953,2013-01-30 14:30:00,71.45500183105469,69.87999725341797,70.3949966430664,4009600
63.43816375732422,68.93499755859375,2013-01-31 14:30:00,70.0999984741211,68.88500213623047,69.58499908447266,4834800
64.6759262084961,70.27999877929688,2013-02-01 14:30:00,70.45999908447266,68.9749984741211,69.67500305175781,20167400
63.930519104003906,69.47000122070312,2013-02-04 14:30:00,70.1449966430664,69.18000030517578,69.87000274658203,11622000
63.66825485229492,69.18499755859375,2013-02-05 14:30:00,70.22000122070312,68.5,69.71499633789062,12343000
63.64984130859375,69.16500091552734,2013-02-06 14:30:00,69.43499755859375,68.43000030517578,68.96499633789062,9345000
63.484188079833984,68.98500061035156,2013-02-07 14:30:00,69.5,68.01499938964844,69.38500213623047,15494000
63.90290069580078,69.44000244140625,2013-02-08 14:30:00,69.63999938964844,68.69499969482422,68.99500274658203,8719400
64.11918640136719,69.67500305175781,2013-02-11 14:30:00,69.8499984741211,69.07499694824219,69.57499694824219,8051600
62.784786224365234,68.2249984741211,2013-02-12 14:30:00,69.19499969482422,67.7249984741211,69.19499969482422,8948200
64.00873565673828,69.55500030517578,2013-02-13 14:30:00,69.88500213623047,68.4749984741211,68.51000213623047,7626000
63.9581298828125,69.5,2013-02-14 14:30:00,69.68000030517578,68.95500183105469,69.33000183105469,4826200
64.13756561279297,69.69499969482422,2013-02-15 14:30:00,70.03500366210938,69.25,69.88999938964844,3477600
62.44430923461914,67.8550033569336,2013-02-19 14:30:00,69.625,67.76499938964844,69.33999633789062,5937200
60.775970458984375,65.75499725341797,2013-02-20 14:30:00,67.75,65.74500274658203,67.63999938964844,5181200
60.1151008605957,65.04000091552734,2013-02-21 14:30:00,65.32499694824219,64.0999984741211,65.32499694824219,4398400
61.15031433105469,66.16000366210938,2013-02-22 14:30:00,66.18499755859375,65.05000305175781,65.18499755859375,3289800
60.21678924560547,65.1500015258789,2013-02-25 14:30:00,66.88999938964844,65.13999938964844,66.42500305175781,3971600
61.316680908203125,66.33999633789062,2013-02-26 14:30:00,66.52999877929688,65.31500244140625,65.31500244140625,3456800
62.231712341308594,67.33000183105469,2013-02-27 14:30:00,67.70999908447266,65.93000030517578,66.05500030517578,2088800
62.231712341308594,67.33000183105469,2013-02-28 14:30:00,67.94000244140625,67.30500030517578,67.45999908447266,2700600
62.301029205322266,67.40499877929688,2013-03-01 14:30:00,67.70999908447266,66.3550033569336,66.81999969482422,1854200
62.661495208740234,67.79499816894531,2013-03-04 14:30:00,67.82499694824219,67.08999633789062,67.30000305175781,1574600
62.9526481628418,68.11000061035156,2013-03-05 14:30:00,68.4749984741211,67.8949966430664,68.0,1673800
62.596797943115234,67.7249984741211,2013-03-06 14:30:00,68.45500183105469,67.37999725341797,68.27999877929688,2598400
62.60604476928711,67.73500061035156,2013-03-07 14:30:00,67.9800033569336,67.45500183105469,67.86000061035156,1932800
63.4702262878418,68.66999816894531,2013-03-08 14:30:00,68.7699966430664,67.73999786376953,68.1050033569336,2103800
63.67357635498047,68.88999938964844,2013-03-11 13:30:00,68.9800033569336,68.45500183105469,68.45500183105469,1740800
64.30210876464844,69.56999969482422,2013-03-12 13:30:00,69.6449966430664,68.7750015258789,68.7750015258789,2597600
65.4020004272461,70.76000213623047,2013-03-13 13:30:00,70.83000183105469,69.4800033569336,69.52999877929688,2648000
65.73009490966797,71.11499786376953,2013-03-14 13:30:00,71.61499786376953,70.80500030517578,70.9000015258789,1949400
65.30033111572266,70.6500015258789,2013-03-15 13:30:00,71.75,69.55500030517578,71.05999755859375,3185200
65.20790100097656,70.55000305175781,2013-03-18 13:30:00,70.93000030517578,69.36000061035156,69.50499725341797,1337200
65.10159301757812,70.43499755859375,2013-03-19 13:30:00,70.8550033569336,69.7699966430664,70.84500122070312,1732200
65.16629791259766,70.50499725341797,2013-03-20 13:30:00,71.08000183105469,70.41999816894531,70.68000030517578,1729000
63.4471321105957,68.6449966430664,2013-03-21 13:30:00,70.02999877929688,68.63500213623047,69.56500244140625,2032800
62.83712387084961,67.98500061035156,2013-03-22 13:30:00,69.12000274658203,67.80000305175781,68.49500274658203,1468800
61.8758659362793,66.94499969482422,2013-03-25 13:30:00,68.23500061035156,66.31999969482422,68.15499877929688,2310800
61.9451789855957,67.0199966430664,2013-03-26 13:30:00,67.94999694824219,66.91500091552734,67.34500122070312,2388200
61.65867233276367,66.70999908447266,2013-03-27 13:30:00,66.8499984741211,65.9749984741211,66.53500366210938,1873000
61.89896774291992,66.97000122070312,2013-03-28 13:30:00,67.04499816894531,66.43499755859375,66.66500091552734,2106800
62.00065612792969,67.08000183105469,2013-04-01 13:30:00,67.23500061035156,66.5999984741211,66.82499694824219,3316800
61.783443450927734,66.84500122070312,2013-04-02 13:30:00,67.49500274658203,66.59500122070312,67.37999725341797,1682000
61.33515548706055,66.36000061035156,2013-04-03 13:30:00,67.0250015258789,66.0999984741211,67.0250015258789,2736200
61.880489349365234,66.94999694824219,2013-04-04 13:30:00,67.44499969482422,66.25,66.5199966430664,1830600
60.87763595581055,65.86499786376953,2013-04-05 13:30:00,66.375,65.31500244140625,65.86499786376953,1768600
60.74824523925781,65.7249984741211,2013-04-08 13:30:00,66.02999877929688,65.27999877929688,65.80000305175781,2031800
61.30281448364258,66.32499694824219,2013-04-09 13:30:00,66.4749984741211,65.69000244140625,65.76000213623047,2561800
62.231712341308594,67.33000183105469,2013-04-10 13:30:00,67.44000244140625,66.41000366210938,66.55500030517578,2082200
63.59501647949219,68.80500030517578,2013-04-11 13:30:00,69.06500244140625,67.30999755859375,67.34500122070312,2174000
62.966495513916016,68.125,2013-04-12 13:30:00,68.72000122070312,67.76000213623047,68.4749984741211,1380000
60.74360656738281,65.72000122070312,2013-04-15 13:30:00,67.7300033569336,65.69499969482422,67.58499908447266,2477400
62.18088150024414,67.2750015258789,2013-04-16 13:30:00,67.33499908447266,66.05500030517578,66.3550033569336,2623000
61.1872673034668,66.19999694824219,2013-04-17 13:30:00,66.98999786376953,65.875,66.69499969482422,2198600
64.99990844726562,70.32499694824219,2013-04-18 13:30:00,71.0,67.83000183105469,67.83000183105469,4781000
65.43433380126953,70.79499816894531,2013-04-19 13:30:00,71.11499786376953,69.80000305175781,70.33000183105469,3607000
66.34013366699219,71.7750015258789,2013-04-22 13:30:00,72.0250015258789,70.40499877929688,70.80999755859375,2211400
66.91781616210938,72.4000015258789,2013-04-23 13:30:00,72.44000244140625,71.55999755859375,71.9749984741211,1593400
67.00098419189453,72.48999786376953,2013-04-24 13:30:00,72.92500305175781,72.17500305175781,72.5,1783800
67.8929214477539,73.45500183105469,2013-04-25 13:30:00,74.27999877929688,72.7300033569336,73.0,1935800
66.9778823852539,72.46499633789062,2013-04-26 13:30:00,73.42500305175781,72.125,73.37999725341797,1144800
67.9437484741211,73.51000213623047,2013-04-29 13:30:00,73.6050033569336,72.44000244140625,72.81999969482422,1112400
67.99922943115234,73.56999969482422,2013-04-30 13:30:00,73.68000030517578,72.81500244140625,73.55000305175781,1635800
67.1026611328125,72.5999984741211,2013-05-01 13:30:00,73.54499816894531,72.55500030517578,72.91000366210938,2144400
68.61845397949219,74.23999786376953,2013-05-02 13:30:00,74.44000244140625,72.65499877929688,72.94000244140625,1647000
70.3746109008789,76.13999938964844,2013-05-03 13:30:00,76.29000091552734,75.00499725341797,75.30000305175781,2041200
70.13429260253906,75.87999725341797,2013-05-06 13:30:00,76.06500244140625,75.30500030517578,76.06500244140625,1144200
70.80902099609375,76.61000061035156,2013-05-07 13:30:00,76.69000244140625,75.88999938964844,75.94000244140625,1017600
71.98291015625,77.56999969482422,2013-05-08 13:30:00,77.58999633789062,76.19000244140625,76.4800033569336,1932400
71.41683959960938,76.95999908447266,2013-05-09 13:30:00,77.56500244140625,76.79000091552734,77.33000183105469,1772000
71.51427459716797,77.06500244140625,2013-05-10 13:30:00,77.30000305175781,76.55500030517578,76.8949966430664,1081600
71.08740997314453,76.6050033569336,2013-05-13 13:30:00,76.98500061035156,76.21499633789062,76.82499694824219,763400
72.75774383544922,78.40499877929688,2013-05-14 13:30:00,78.43000030517578,76.66999816894531,76.74500274658203,1248600
72.60001373291016,78.23500061035156,2013-05-15 13:30:00,78.92500305175781,77.78500366210938,78.02999877929688,1648600
72.17314910888672,77.7750015258789,2013-05-16 13:30:00,78.69999694824219,77.69999694824219,78.03500366210938,991000
73.69965362548828,79.41999816894531,2013-05-17 13:30:00,79.44499969482422,77.94499969482422,78.3550033569336,1144800
72.87377166748047,78.52999877929688,2013-05-20 13:30:00,79.23999786376953,77.9000015258789,79.18000030517578,1293000
73.74604034423828,79.47000122070312,2013-05-21 13:30:00,79.71499633789062,78.51000213623047,78.7699966430664,1410400
73.10113525390625,78.7750015258789,2013-05-22 13:30:00,80.41500091552734,78.29499816894531,79.44499969482422,1292600
72.78096771240234,78.43000030517578,2013-05-23 13:30:00,78.94999694824219,77.18000030517578,77.71499633789062,1117600
72.76703643798828,78.41500091552734,2013-05-24 13:30:00,78.71499633789062,77.16500091552734,77.81999969482422,1100600
72.99905395507812,78.66500091552734,2013-05-28 13:30:00,79.75,78.04000091552734,79.44499969482422,1137000
72.89231872558594,78.55000305175781,2013-05-29 13:30:00,78.95999908447266,77.79000091552734,78.1050033569336,767800
72.5257568359375,78.15499877929688,2013-05-30 13:30:00,78.81500244140625,77.86000061035156,78.69499969482422,809600
71.27301788330078,76.80500030517578,2013-05-31 13:30:00,78.2699966430664,76.80500030517578,77.81500244140625,1100600
71.98291015625,77.56999969482422,2013-06-03 13:30:00,77.6449966430664,76.0999984741211,77.23500061035156,1323200
71.24981689453125,76.77999877929688,2013-06-04 13:30:00,78.1050033569336,76.42500305175781,77.44499969482422,1132000
69.5933609008789,74.99500274658203,2013-06-05 13:30:00,76.7249984741211,74.96499633789062,76.52999877929688,1146200
70.18728637695312,75.63500213623047,2013-06-06 13:30:00,75.79000091552734,74.5199966430664,74.57499694824219,888200
71.8808364868164,77.45999908447266,2013-06-07 13:30:00,77.66999816894531,76.26000213623047,76.54499816894531,1367000
71.57923889160156,77.13500213623047,2013-06-10 13:30:00,77.99500274658203,76.55000305175781,77.99500274658203,636600
70.47959899902344,75.94999694824219,2013-06-11 13:30:00,76.91500091552734,75.50499725341797,75.8949966430664,881200
70.03880310058594,75.4749984741211,2013-06-12 13:30:00,76.84500122070312,75.33999633789062,76.67500305175781,818600
72.04322052001953,77.63500213623047,2013-06-13 13:30:00,77.94999694824219,75.2300033569336,75.2300033569336,1655200
71.37509155273438,76.91500091552734,2013-06-14 13:30:00,77.86000061035156,76.55500030517578,77.18499755859375,919400
72.43296813964844,78.05500030517578,2013-06-17 13:30:00,78.47000122070312,77.18000030517578,77.5,1115600
72.64641571044922,78.28500366210938,2013-06-18 13:30:00,78.375,77.55500030517578,78.0199966430664,1032400
71.53284454345703,77.08499908447266,2013-06-19 13:30:00,78.61000061035156,77.04499816894531,78.16000366210938,1002000
69.6351547241211,75.04000091552734,2013-06-20 13:30:00,76.37999725341797,74.80500030517578,76.125,2130400
69.08761596679688,74.44999694824219,2013-06-21 13:30:00,76.0199966430664,73.81500244140625,75.95500183105469,2092600
68.05757904052734,73.33999633789062,2013-06-24 13:30:00,74.43499755859375,72.6050033569336,74.41500091552734,1538400
68.59117889404297,73.91500091552734,2013-06-25 13:30:00,75.12000274658203,73.38500213623047,74.58999633789062,1300400
69.13401794433594,74.5,2013-06-26 13:30:00,74.9800033569336,73.44999694824219,74.34500122070312,1524600
69.14794158935547,74.51499938964844,2013-06-27 13:30:00,75.26000213623047,74.16999816894531,75.05000305175781,1559800
67.93228912353516,73.20500183105469,2013-06-28 13:30:00,74.12000274658203,73.0,73.95999908447266,4672000
68.87419891357422,74.22000122070312,2013-07-01 13:30:00,75.09500122070312,73.27999877929688,73.5250015258789,1363000
69.171142578125,74.54000091552734,2013-07-02 13:30:00,74.91000366210938,73.87000274658203,73.92500305175781,1403800
69.40777587890625,74.79499816894531,2013-07-03 13:30:00,74.97000122070312,72.29000091552734,73.56999969482422,738400
70.72087097167969,76.20999908447266,2013-07-05 13:30:00,76.3499984741211,75.28500366210938,75.28500366210938,1289200
71.09669494628906,76.61499786376953,2013-07-08 13:30:00,76.82499694824219,75.65499877929688,76.6500015258789,1203000
72.62786102294922,78.26499938964844,2013-07-09 13:30:00,78.3949966430664,76.5199966430664,77.26499938964844,1716000
72.4004898071289,78.0199966430664,2013-07-10 13:30:00,78.5,77.68000030517578,78.29000091552734,1164400
73.32383728027344,79.01499938964844,2013-07-11 13:30:00,79.75499725341797,78.56500244140625,79.55999755859375,1771000
73.18463134765625,78.86499786376953,2013-07-12 13:30:00,79.06500244140625,78.09500122070312,78.95500183105469,1584600
72.8412857055664,78.49500274658203,2013-07-15 13:30:00,79.0199966430664,78.3550033569336,78.98999786376953,850600
71.84370422363281,77.41999816894531,2013-07-16 13:30:00,78.54499816894531,77.06500244140625,78.5199966430664,1139400
72.78096771240234,78.43000030517578,2013-07-17 13:30:00,78.46499633789062,77.69000244140625,77.81999969482422,1294000
74.23787689208984,80.0,2013-07-18 13:30:00,80.73500061035156,78.08999633789062,78.3949966430664,2736800
73.84811401367188,79.58000183105469,2013-07-19 13:30:00,80.47000122070312,79.51000213623047,80.03500366210938,1756800
74.11261749267578,79.86499786376953,2013-07-22 13:30:00,80.56500244140625,79.45500183105469,79.50499725341797,2017000
73.83421325683594,79.56500244140625,2013-07-23 13:30:00,80.66999816894531,79.47000122070312,80.38500213623047,1342200
72.88304138183594,78.54000091552734,2013-07-24 13:30:00,79.93499755859375,78.08999633789062,79.77999877929688,1704000
73.64861297607422,79.36499786376953,2013-07-25 13:30:00,79.3949966430664,78.47000122070312,78.54499816894531,1127600
72.89697265625,78.55500030517578,2013-07-26 13:30:00,79.25,78.19000244140625,79.25,1044400
74.78075408935547,80.58499908447266,2013-07-29 13:30:00,80.73999786376953,78.70999908447266,79.11499786376953,1548400
74.72509002685547,80.5250015258789,2013-07-30 13:30:00,80.81999969482422,80.0,80.54499816894531,1307000
74.44204711914062,80.22000122070312,2013-07-31 13:30:00,81.12999725341797,80.00499725341797,80.75,1263000
75.51848602294922,81.37999725341797,2013-08-01 13:30:00,82.81999969482422,78.12999725341797,78.12999725341797,953600
75.33289337158203,81.18000030517578,2013-08-02 13:30:00,81.7699966430664,80.2249984741211,81.24500274658203,998000
75.11481475830078,80.94499969482422,2013-08-05 13:30:00,81.2699966430664,80.33999633789062,80.80999755859375,1447000
74.89674377441406,80.70999908447266,2013-08-06 13:30:00,80.82499694824219,79.7699966430664,80.78500366210938,1322400
74.74362182617188,80.54499816894531,2013-08-07 13:30:00,80.96499633789062,80.05000305175781,80.47000122070312,1053200
75.37239074707031,80.91500091552734,2013-08-08 13:30:00,81.36000061035156,80.19000244140625,81.01499938964844,1592600
75.30716705322266,80.84500122070312,2013-08-09 13:30:00,81.36499786376953,80.40499877929688,80.73500061035156,825800
75.1441879272461,80.66999816894531,2013-08-12 13:30:00,80.95500183105469,80.13500213623047,80.51000213623047,1501200
75.8055419921875,81.37999725341797,2013-08-13 13:30:00,81.6500015258789,80.20500183105469,80.43499755859375,1327800
75.6239013671875,81.18499755859375,2013-08-14 13:30:00,81.71499633789062,80.9800033569336,81.4800033569336,1328600
73.94719696044922,79.38500213623047,2013-08-15 13:30:00,80.5,79.1449966430664,80.5,1157400
73.86335754394531,79.29499816894531,2013-08-16 13:30:00,79.69000244140625,78.78500366210938,79.02999877929688,1377800
73.03433227539062,78.40499877929688,2013-08-19 13:30:00,79.66500091552734,78.26000213623047,79.07499694824219,1051600
74.04035186767578,79.48500061035156,2013-08-20 13:30:00,80.0250015258789,78.40499877929688,78.4749984741211,1613600
74.10554504394531,79.55500030517578,2013-08-21 13:30:00,80.27999877929688,78.9000015258789,79.40499877929688,887400
74.58992004394531,80.07499694824219,2013-08-22 13:30:00,80.23999786376953,78.93000030517578,79.71499633789062,660600
75.56336212158203,81.12000274658203,2013-08-23 13:30:00,81.20999908447266,79.34500122070312,80.2300033569336,1401800
74.64582824707031,80.13500213623047,2013-08-26 13:30:00,81.42500305175781,79.87999725341797,81.31999969482422,858400
73.47676086425781,78.87999725341797,2013-08-27 13:30:00,79.5,78.5,79.13999938964844,1072000
72.54528045654297,77.87999725341797,2013-08-28 13:30:00,78.8499984741211,77.80000305175781,78.47000122070312,1638400
72.74557495117188,78.09500122070312,2013-08-29 13:30:00,78.62000274658203,77.63500213623047,77.6449966430664,1412400
72.7548828125,78.1050033569336,2013-08-30 13:30:00,78.625,77.8499984741211,78.2699966430664,748400
73.22063446044922,78.6050033569336,2013-09-03 13:30:00,79.95999908447266,78.23500061035156,79.2699966430664,992200
74.02635192871094,79.47000122070312,2013-09-04 13:30:00,79.71499633789062,78.17500305175781,78.44999694824219,1130200
74.78553771972656,80.28500366210938,2013-09-05 13:30:00,80.66999816894531,79.16999816894531,79.42500305175781,639000
74.1707534790039,79.625,2013-09-06 13:30:00,80.58999633789062,78.79000091552734,80.48999786376953,1290200
75.28388977050781,80.81999969482422,2013-09-09 13:30:00,80.9800033569336,79.7699966430664,79.7699966430664,834600
76.2480239868164,81.8550033569336,2013-09-10 13:30:00,81.8550033569336,81.1050033569336,81.41500091552734,1240200
76.57867431640625,82.20999908447266,2013-09-11 13:30:00,82.3550033569336,81.56999969482422,81.79000091552734,806000
75.85676574707031,81.43499755859375,2013-09-12 13:30:00,82.76000213623047,81.15499877929688,82.09500122070312,891200
75.65648651123047,81.22000122070312,2013-09-13 13:30:00,81.98999786376953,81.08499908447266,81.65499877929688,913800
76.94197845458984,82.5999984741211,2013-09-16 13:30:00,82.94499969482422,82.17500305175781,82.5999984741211,858400
77.01649475097656,82.68000030517578,2013-09-17 13:30:00,82.76499938964844,82.12000274658203,82.5999984741211,878400
78.1575927734375,83.90499877929688,2013-09-18 13:30:00,83.98999786376953,81.80999755859375,82.32499694824219,1110400
78.24140930175781,83.99500274658203,2013-09-19 13:30:00,84.48500061035156,83.5999984741211,83.8949966430664,920400
77.4449691772461,83.13999938964844,2013-09-20 13:30:00,86.1050033569336,83.08000183105469,83.99500274658203,1415400
76.1129379272461,81.70999908447266,2013-09-23 13:30:00,83.08000183105469,81.66500091552734,83.08000183105469,1876400
76.1362075805664,81.73500061035156,2013-09-24 13:30:00,82.58999633789062,81.6050033569336,81.83999633789062,1591200
76.68115234375,82.31999969482422,2013-09-25 13:30:00,82.66999816894531,81.69999694824219,81.97000122070312,1779400
77.61731719970703,83.32499694824219,2013-09-26 13:30:00,83.4800033569336,82.3949966430664,82.55000305175781,913600
76.97457885742188,82.63500213623047,2013-09-27 13:30:00,83.15499877929688,82.44000244140625,82.72000122070312,1311200
77.80825805664062,83.52999877929688,2013-09-30 13:30:00,83.56500244140625,81.76000213623047,81.88999938964844,1504800
77.69181823730469,83.40499877929688,2013-10-01 13:30:00,83.90499877929688,83.05000305175781,83.56500244140625,1185800
77.61265563964844,83.31999969482422,2013-10-02 13:30:00,83.31999969482422,82.43000030517578,82.76499938964844,1333800
77.54278564453125,83.24500274658203,2013-10-03 13:30:00,83.41500091552734,82.52999877929688,83.09500122070312,1540800
79.59674072265625,85.44999694824219,2013-10-04 13:30:00,85.5,82.98500061035156,83.06999969482422,1846200
78.20415496826172,83.95500183105469,2013-10-07 13:30:00,85.0999984741211,83.75499725341797,84.38500213623047,1843000
75.8288345336914,81.40499877929688,2013-10-08 13:30:00,84.00499725341797,81.3499984741211,83.95500183105469,1740800
75.67512512207031,81.23999786376953,2013-10-09 13:30:00,82.11000061035156,80.37999725341797,81.48999786376953,2231000
76.72306060791016,82.36499786376953,2013-10-10 13:30:00,82.9749984741211,81.9000015258789,82.3499984741211,2301400
77.66388702392578,83.375,2013-10-11 13:30:00,83.3949966430664,82.28500366210938,82.43499755859375,1818600
77.3751220703125,83.06500244140625,2013-10-14 13:30:00,83.25,82.33999633789062,82.7300033569336,1238200
77.0723876953125,82.73999786376953,2013-10-15 13:30:00,83.31500244140625,82.44499969482422,83.05999755859375,911600
77.41703796386719,83.11000061035156,2013-10-16 13:30:00,84.00499725341797,82.77999877929688,83.5999984741211,1916000
81.25949096679688,87.23500061035156,2013-10-17 13:30:00,87.37000274658203,83.62000274658203,84.875,3069600
81.86495971679688,87.88500213623047,2013-10-18 13:30:00,88.29000091552734,86.7750015258789,87.68000030517578,2707800
82.25616455078125,88.30500030517578,2013-10-21 13:30:00,88.51000213623047,87.2249984741211,87.6500015258789,1685400
83.89097595214844,90.05999755859375,2013-10-22 13:30:00,90.36499786376953,88.25499725341797,88.92500305175781,1819200
83.11315155029297,89.2249984741211,2013-10-23 13:30:00,90.22000122070312,89.16000366210938,90.13999938964844,1435200
83.58358001708984,89.7300033569336,2013-10-24 13:30:00,89.80500030517578,88.9749984741211,89.375,723600
84.72932434082031,90.95999908447266,2013-10-25 13:30:00,90.9749984741211,89.54499816894531,89.7300033569336,1139600
84.24960327148438,90.44499969482422,2013-10-28 13:30:00,91.03500366210938,90.16500091552734,90.96499633789062,1001600
86.4013671875,92.75499725341797,2013-10-29 13:30:00,92.83999633789062,90.5999984741211,90.5999984741211,1654600
84.60820770263672,90.83000183105469,2013-10-30 13:30:00,93.63999938964844,89.56500244140625,93.13999938964844,2376400
85.03671264648438,91.29000091552734,2013-10-31 13:30:00,92.28500366210938,90.7750015258789,90.87000274658203,1835400
85.11589813232422,91.375,2013-11-01 13:30:00,91.69499969482422,90.8550033569336,91.4000015258789,1466600
85.44657135009766,91.7300033569336,2013-11-04 14:30:00,91.80000305175781,90.83499908447266,91.75,1215400
85.3813705444336,91.66000366210938,2013-11-05 14:30:00,92.2300033569336,90.80500030517578,91.47000122070312,1102800
85.4234390258789,91.4000015258789,2013-11-06 14:30:00,92.41999816894531,91.16999816894531,91.16999816894531,1724200
83.94676208496094,89.81999969482422,2013-11-07 14:30:00,92.16000366210938,89.67500305175781,91.6449966430664,1768400
84.84864807128906,90.78500366210938,2013-11-08 14:30:00,90.8949966430664,89.69000244140625,90.0,2207200
85.12434387207031,91.08000183105469,2013-11-11 14:30:00,91.57499694824219,90.79000091552734,90.86499786376953,1497200
85.28789520263672,91.25499725341797,2013-11-12 14:30:00,91.49500274658203,90.69000244140625,91.08999633789062,1230400
86.27391815185547,92.30999755859375,2013-11-13 14:30:00,92.44999694824219,90.78500366210938,90.83999633789062,1962000
86.72252655029297,92.79000091552734,2013-11-14 14:30:00,92.80500030517578,91.86000061035156,92.5,1034400
86.40474700927734,92.44999694824219,2013-11-15 14:30:00,93.44499969482422,92.33499908447266,93.19000244140625,1367800
86.28793334960938,92.32499694824219,2013-11-18 14:30:00,92.7699966430664,92.05500030517578,92.48500061035156,924800
86.33934020996094,92.37999725341797,2013-11-19 14:30:00,92.75,92.0250015258789,92.11499786376953,625600
85.14302825927734,91.0999984741211,2013-11-20 14:30:00,92.3499984741211,90.9000015258789,92.32499694824219,1337400
85.66641998291016,91.66000366210938,2013-11-21 14:30:00,91.95999908447266,91.2249984741211,91.65499877929688,1333000
85.88137817382812,91.88999938964844,2013-11-22 14:30:00,92.11499786376953,91.2750015258789,91.79499816894531,1349200
86.07295989990234,92.09500122070312,2013-11-25 14:30:00,92.7699966430664,91.91000366210938,91.91000366210938,974400
86.51224517822266,92.56500244140625,2013-11-26 14:30:00,92.99500274658203,91.87999725341797,92.08999633789062,966400
86.23652648925781,92.2699966430664,2013-11-27 14:30:00,92.7750015258789,92.02999877929688,92.5999984741211,909400
86.01223754882812,92.02999877929688,2013-11-29 14:30:00,92.78500366210938,91.875,92.5,394400
85.8253173828125,91.83000183105469,2013-12-02 14:30:00,92.76499938964844,91.67500305175781,92.16999816894531,1018400
84.89069366455078,90.83000183105469,2013-12-03 14:30:00,91.61499786376953,90.16000366210938,91.16000366210938,1342800
85.49351501464844,91.4749984741211,2013-12-04 14:30:00,92.30000305175781,90.8550033569336,90.8550033569336,1929600
84.94677734375,90.88999938964844,2013-12-05 14:30:00,91.6449966430664,90.42500305175781,91.0,1156000
87.77863311767578,93.91999816894531,2013-12-06 14:30:00,93.9800033569336,91.4800033569336,92.5,1894400
87.2505874633789,93.3550033569336,2013-12-09 14:30:00,94.5,93.01499938964844,94.09500122070312,1417000
87.54966735839844,93.67500305175781,2013-12-10 14:30:00,94.0,92.95500183105469,93.3550033569336,1103600
85.21315002441406,91.17500305175781,2013-12-11 14:30:00,93.61499786376953,90.74500274658203,93.54499816894531,2164000
85.9468002319336,91.95999908447266,2013-12-12 14:30:00,92.29499816894531,91.0250015258789,91.11000061035156,1797800
85.47481536865234,91.45500183105469,2013-12-13 14:30:00,92.56999969482422,91.1449966430664,91.96499633789062,1353400
85.23648834228516,91.19999694824219,2013-12-16 14:30:00,92.1500015258789,90.75,91.45500183105469,1908000
85.80192565917969,91.80500030517578,2013-12-17 14:30:00,92.0,90.95500183105469,91.6050033569336,1786800
86.55897521972656,92.61499786376953,2013-12-18 14:30:00,92.81500244140625,90.44999694824219,91.87999725341797,1919000
86.5916976928711,92.6500015258789,2013-12-19 14:30:00,92.90499877929688,92.17500305175781,92.43000030517578,1435200
87.20853424072266,93.30999755859375,2013-12-20 14:30:00,93.67500305175781,92.38500213623047,92.51000213623047,4534400
86.6851577758789,92.75,2013-12-23 14:30:00,93.70999908447266,92.54000091552734,93.69999694824219,1373600
87.65714263916016,93.79000091552734,2013-12-24 14:30:00,93.80000305175781,92.80500030517578,92.80500030517578,373000
87.89079284667969,94.04000091552734,2013-12-26 14:30:00,94.18499755859375,93.625,93.91999816894531,609800
87.75059509277344,93.88999938964844,2013-12-27 14:30:00,94.29000091552734,93.625,94.29000091552734,783000
88.07303619384766,94.23500061035156,2013-12-30 14:30:00,94.41500091552734,93.55000305175781,93.91000366210938,1015200
88.6291275024414,94.83000183105469,2013-12-31 14:30:00,95.03500366210938,94.12999725341797,94.38500213623047,1038800
88.29268646240234,94.47000122070312,2014-01-02 14:30:00,95.1449966430664,94.26499938964844,94.75,1368400
88.51231384277344,94.70500183105469,2014-01-03 14:30:00,95.05000305175781,94.44000244140625,94.69999694824219,814200
87.62911224365234,93.76000213623047,2014-01-06 14:30:00,94.99500274658203,93.46499633789062,94.81500244140625,1564800
87.98426818847656,94.13999938964844,2014-01-07 14:30:00,94.56999969482422,93.01000213623047,93.80000305175781,2334800
88.54034423828125,94.73500061035156,2014-01-08 14:30:00,95.0999984741211,93.70500183105469,94.2750015258789,2006600
88.8487548828125,95.06500244140625,2014-01-09 14:30:00,95.61499786376953,94.625,94.8550033569336,2366000
89.05905151367188,95.29000091552734,2014-01-10 14:30:00,95.7699966430664,94.81500244140625,95.28500366210938,2090200
87.74124145507812,93.87999725341797,2014-01-13 14:30:00,95.67500305175781,93.59500122070312,94.96499633789062,2609000
89.20391082763672,95.44499969482422,2014-01-14 14:30:00,95.50499725341797,93.78500366210938,94.28500366210938,1919400
89.11514282226562,95.3499984741211,2014-01-15 14:30:00,95.7750015258789,95.21499633789062,95.63500213623047,2111400
87.6991958618164,93.83499908447266,2014-01-16 14:30:00,94.94499969482422,91.28500366210938,91.28500366210938,3294200
88.54502868652344,94.73999786376953,2014-01-17 14:30:00,96.11499786376953,94.25,94.25,3656400
88.78803253173828,95.0,2014-01-21 14:30:00,95.7699966430664,94.55500030517578,95.16500091552734,2339600
87.46087646484375,93.58000183105469,2014-01-22 14:30:00,95.34500122070312,93.29499816894531,95.07499694824219,2843800
87.33470916748047,93.44499969482422,2014-01-23 14:30:00,94.0199966430664,92.88500213623047,93.3550033569336,2456200
84.86266326904297,90.80000305175781,2014-01-24 14:30:00,92.8499984741211,90.79499816894531,92.61499786376953,2377200
85.60567474365234,91.59500122070312,2014-01-27 14:30:00,92.24500274658203,90.21499633789062,91.0,2781000
85.2505111694336,91.21499633789062,2014-01-28 14:30:00,92.33000183105469,90.86000061035156,91.54499816894531,2033200
85.61033630371094,91.5999984741211,2014-01-29 14:30:00,92.43499755859375,90.83000183105469,91.0250015258789,1591000
86.29727935791016,92.33499908447266,2014-01-30 14:30:00,92.82499694824219,91.43499755859375,91.8499984741211,1190000
85.2177963256836,91.18000030517578,2014-01-31 14:30:00,92.25,90.71499633789062,91.1050033569336,2721200
82.6523208618164,88.43499755859375,2014-02-03 14:30:00,91.66500091552734,88.33499908447266,91.25499725341797,2566800
82.82522583007812,88.62000274658203,2014-02-04 14:30:00,89.72000122070312,88.4000015258789,88.86499786376953,1938000
82.81586456298828,88.61000061035156,2014-02-05 14:30:00,88.81500244140625,86.91500091552734,87.94499969482422,2258600
83.61027526855469,89.45999908447266,2014-02-06 14:30:00,89.65499877929688,88.41000366210938,88.71499633789062,1659000
85.30191802978516,91.2699966430664,2014-02-07 14:30:00,91.2750015258789,90.25,90.30000305175781,1596800
85.95146942138672,91.96499633789062,2014-02-10 14:30:00,92.45500183105469,90.86499786376953,91.06500244140625,2010600
86.52626037597656,92.58000183105469,2014-02-11 14:30:00,93.30999755859375,91.75499725341797,92.20500183105469,1992200
86.80664825439453,92.87999725341797,2014-02-12 14:30:00,93.53500366210938,92.625,93.01499938964844,1361800
87.49358367919922,93.61499786376953,2014-02-13 14:30:00,93.91999816894531,92.08000183105469,92.5,1374400
88.27397155761719,94.44999694824219,2014-02-14 14:30:00,94.73999786376953,93.55000305175781,93.61499786376953,1415000
87.19452667236328,93.29499816894531,2014-02-18 14:30:00,94.25,93.11000061035156,94.2300033569336,2619800
87.70085144042969,93.52999877929688,2014-02-19 14:30:00,94.36499786376953,92.79499816894531,92.82499694824219,1718000
88.4931869506836,94.375,2014-02-20 14:30:00,94.44000244140625,93.04499816894531,93.5,1690800
89.01828002929688,94.93499755859375,2014-02-21 14:30:00,95.40499877929688,94.3499984741211,94.38500213623047,2260000
88.3853530883789,94.26000213623047,2014-02-24 14:30:00,95.49500274658203,94.25,94.74500274658203,1695400
89.44023132324219,95.38500213623047,2014-02-25 14:30:00,96.0,94.1500015258789,94.15499877929688,1679200
90.54670715332031,96.56500244140625,2014-02-26 14:30:00,97.05999755859375,95.125,95.19999694824219,1781200
90.80925750732422,96.84500122070312,2014-02-27 14:30:00,97.33499908447266,95.5999984741211,96.4000015258789,1586200
92.74555969238281,98.91000366210938,2014-02-28 14:30:00,99.07499694824219,96.875,97.0199966430664,2879800
92.38923645019531,98.52999877929688,2014-03-03 14:30:00,99.16999816894531,96.61499786376953,96.61499786376953,1615400
93.85670471191406,100.09500122070312,2014-03-04 14:30:00,100.20500183105469,99.33999633789062,99.875,1354000
93.55196380615234,99.7699966430664,2014-03-05 14:30:00,100.4800033569336,99.55500030517578,100.0,1194200
93.83325958251953,100.06999969482422,2014-03-06 14:30:00,100.6449966430664,99.7249984741211,99.87999725341797,979200
93.80044555664062,100.03500366210938,2014-03-07 14:30:00,100.62000274658203,99.62000274658203,100.16999816894531,1540000
93.90825653076172,100.1500015258789,2014-03-10 13:30:00,100.41500091552734,99.31999969482422,99.66000366210938,979200
92.60021209716797,98.75499725341797,2014-03-11 13:30:00,100.5,98.7249984741211,100.5,1772000
92.45955657958984,98.6050033569336,2014-03-12 13:30:00,99.01499938964844,98.0999984741211,98.6050033569336,1605600
91.38123321533203,97.45500183105469,2014-03-13 13:30:00,99.4000015258789,97.25499725341797,99.11499786376953,1022400
91.22651672363281,97.29000091552734,2014-03-14 13:30:00,98.05999755859375,97.125,97.29499816894531,1214000
91.87350463867188,97.9800033569336,2014-03-17 13:30:00,98.59500122070312,97.37000274658203,97.59500122070312,1668800
92.81118774414062,98.9800033569336,2014-03-18 13:30:00,99.40499877929688,98.22000122070312,98.23500061035156,1223200
91.49845123291016,97.58000183105469,2014-03-19 13:30:00,99.61000061035156,97.2249984741211,99.44499969482422,1495200
91.30155181884766,97.37000274658203,2014-03-20 13:30:00,98.06500244140625,97.00499725341797,97.23999786376953,1833800
91.47969818115234,97.55999755859375,2014-03-21 13:30:00,99.06999969482422,97.2699966430664,98.23500061035156,3024800
90.58422088623047,96.6050033569336,2014-03-24 13:30:00,98.19999694824219,96.125,98.05000305175781,1008800
90.42479705810547,96.43499755859375,2014-03-25 13:30:00,97.54499816894531,96.20500183105469,97.06999969482422,1555400
89.2714614868164,95.20500183105469,2014-03-26 13:30:00,97.0,95.20500183105469,96.70500183105469,1492400
88.85889434814453,94.76499938964844,2014-03-27 13:30:00,95.4800033569336,94.01499938964844,95.21499633789062,1201400
89.4590072631836,95.40499877929688,2014-03-28 13:30:00,95.8550033569336,94.70500183105469,95.01499938964844,1012800
90.70140838623047,96.7300033569336,2014-03-31 13:30:00,97.48999786376953,96.00499725341797,96.36000061035156,1627800
92.19233703613281,98.31999969482422,2014-04-01 13:30:00,98.36000061035156,96.69000244140625,97.54000091552734,1093600
92.48300170898438,98.62999725341797,2014-04-02 13:30:00,98.99500274658203,97.7300033569336,98.08499908447266,1458200
92.53458404541016,98.68499755859375,2014-04-03 13:30:00,100.0250015258789,98.08000183105469,98.625,1224600
92.71742248535156,98.87999725341797,2014-04-04 13:30:00,100.79499816894531,98.3550033569336,100.23500061035156,2836400
90.51856994628906,96.53500366210938,2014-04-07 13:30:00,98.87000274658203,96.1449966430664,98.63500213623047,2327000
90.25133514404297,96.25,2014-04-08 13:30:00,97.06500244140625,95.1500015258789,96.44000244140625,1858600
91.7469253540039,97.84500122070312,2014-04-09 13:30:00,97.98500061035156,95.8550033569336,96.34500122070312,1432000
89.06048583984375,94.9800033569336,2014-04-10 13:30:00,98.09500122070312,94.94499969482422,97.98999786376953,1847000
88.05718231201172,93.91000366210938,2014-04-11 13:30:00,95.38500213623047,93.81500244140625,94.69999694824219,1373400
88.40411376953125,94.27999877929688,2014-04-14 13:30:00,94.8499984741211,93.56999969482422,94.58000183105469,1304200
88.39004516601562,94.26499938964844,2014-04-15 13:30:00,94.58000183105469,92.58999633789062,94.31999969482422,1875400
89.84344482421875,95.81500244140625,2014-04-16 13:30:00,95.96499633789062,94.24500274658203,95.0,2034400
93.51445007324219,99.7300033569336,2014-04-17 13:30:00,100.0,98.23999786376953,99.99500274658203,3588200
92.14542388916016,98.2699966430664,2014-04-21 13:30:00,99.70999908447266,98.19499969482422,99.05000305175781,2523000
92.06105041503906,98.18000030517578,2014-04-22 13:30:00,98.99500274658203,98.13999938964844,98.43499755859375,1778000
92.03292846679688,98.1500015258789,2014-04-23 13:30:00,99.05999755859375,97.96499633789062,98.33000183105469,1542200
91.1937026977539,97.25499725341797,2014-04-24 13:30:00,98.47000122070312,97.13500213623047,98.31500244140625,1536800
90.47637176513672,96.48999786376953,2014-04-25 13:30:00,97.1500015258789,95.87999725341797,96.93499755859375,1429000
89.76842498779297,95.73500061035156,2014-04-28 13:30:00,97.28500366210938,95.03500366210938,96.88500213623047,1583800
90.48576354980469,96.5,2014-04-29 13:30:00,96.7249984741211,95.58999633789062,96.17500305175781,987400
90.77643585205078,96.80999755859375,2014-04-30 13:30:00,97.0,96.12999725341797,96.1449966430664,1117400
90.31698608398438,96.31999969482422,2014-05-01 13:30:00,97.1050033569336,96.125,96.57499694824219,789000
91.5078125,97.58999633789062,2014-05-02 13:30:00,97.78500366210938,96.08999633789062,96.20500183105469,1516200
91.84069061279297,97.94499969482422,2014-05-05 13:30:00,98.1050033569336,96.79499816894531,97.43000030517578,888000
91.64379119873047,97.73500061035156,2014-05-06 13:30:00,98.24500274658203,96.50499725341797,97.36499786376953,1240600
93.17689514160156,99.37000274658203,2014-05-07 13:30:00,99.44999694824219,97.5,98.16000366210938,1619800
92.3348159790039,98.13999938964844,2014-05-08 13:30:00,99.44000244140625,97.48500061035156,98.80999755859375,1200800
92.49476623535156,98.30999755859375,2014-05-09 13:30:00,98.41999816894531,97.40499877929688,98.125,1005000
93.8072509765625,99.70500183105469,2014-05-12 13:30:00,99.82499694824219,98.36000061035156,98.91500091552734,688800
93.01693725585938,98.86499786376953,2014-05-13 13:30:00,99.75,98.77999877929688,99.6500015258789,950000
92.46653747558594,98.27999877929688,2014-05-14 13:30:00,99.20500183105469,98.16500091552734,98.79499816894531,866200
91.55862426757812,97.31500244140625,2014-05-15 13:30:00,98.2249984741211,96.5,98.1500015258789,933800
91.90203857421875,97.68000030517578,2014-05-16 13:30:00,97.79000091552734,96.4800033569336,97.41500091552734,1471400
92.221923828125,98.0199966430664,2014-05-19 13:30:00,99.23500061035156,97.68000030517578,97.96499633789062,986400
92.05728912353516,97.84500122070312,2014-05-20 13:30:00,98.62000274658203,97.76000213623047,98.13999938964844,1540400
92.75350189208984,98.58499908447266,2014-05-21 13:30:00,98.94499969482422,97.86000061035156,98.01000213623047,1186400
92.36775207519531,98.17500305175781,2014-05-22 13:30:00,99.0199966430664,98.1500015258789,98.50499725341797,691400
93.54851531982422,99.43000030517578,2014-05-23 13:30:00,99.51499938964844,98.13500213623047,98.13500213623047,605200
93.20040893554688,99.05999755859375,2014-05-27 13:30:00,99.8550033569336,98.91500091552734,99.75,1357800
94.2024154663086,100.125,2014-05-28 13:30:00,100.45999908447266,98.9749984741211,99.25,1453000
94.55523681640625,100.5,2014-05-29 13:30:00,100.5,99.01000213623047,100.21499633789062,1044600
94.84217834472656,100.80500030517578,2014-05-30 13:30:00,101.44000244140625,100.06999969482422,100.46499633789062,1078200
95.1808853149414,101.16500091552734,2014-06-02 13:30:00,101.5250015258789,100.4800033569336,100.90499877929688,615400
94.89391326904297,100.86000061035156,2014-06-03 13:30:00,101.1500015258789,100.46499633789062,100.70500183105469,832200
95.900634765625,101.93000030517578,2014-06-04 13:30:00,102.375,100.03500366210938,100.81500244140625,1573600
95.5666275024414,101.57499694824219,2014-06-05 13:30:00,101.8949966430664,100.55000305175781,101.79000091552734,986200
96.40400695800781,102.46499633789062,2014-06-06 13:30:00,102.9000015258789,102.00499725341797,102.12000274658203,873600
96.4886703491211,102.55500030517578,2014-06-09 13:30:00,102.82499694824219,102.18000030517578,102.31500244140625,840400
96.81327056884766,102.9000015258789,2014-06-10 13:30:00,102.94499969482422,101.62999725341797,102.19999694824219,834400
96.71916961669922,102.80000305175781,2014-06-11 13:30:00,102.95999908447266,102.1449966430664,102.25,763400
95.7689208984375,101.79000091552734,2014-06-12 13:30:00,102.8550033569336,101.67500305175781,102.68499755859375,1284000
96.09351348876953,102.13500213623047,2014-06-13 13:30:00,102.375,101.6050033569336,101.91500091552734,504200
95.5054931640625,101.51000213623047,2014-06-16 13:30:00,102.125,100.90499877929688,101.875,861000
95.26555633544922,101.25499725341797,2014-06-17 13:30:00,102.05999755859375,101.0250015258789,101.26000213623047,725600
95.77362060546875,101.79499816894531,2014-06-18 13:30:00,102.0,100.63500213623047,101.125,1122800
95.59957122802734,101.61000061035156,2014-06-19 13:30:00,102.0250015258789,101.48999786376953,101.70500183105469,850200
96.2346420288086,102.28500366210938,2014-06-20 13:30:00,102.7300033569336,101.63999938964844,101.91500091552734,1507000
96.14053344726562,102.18499755859375,2014-06-23 13:30:00,102.53500366210938,101.8499984741211,102.44000244140625,599800
95.51018524169922,101.51499938964844,2014-06-24 13:30:00,102.74500274658203,101.26000213623047,101.80000305175781,1050800
96.18759155273438,102.23500061035156,2014-06-25 13:30:00,102.92500305175781,101.70999908447266,101.70999908447266,1229400
95.29850769042969,101.29000091552734,2014-06-26 13:30:00,102.38500213623047,100.95500183105469,102.36499786376953,955200
95.99002838134766,102.0250015258789,2014-06-27 13:30:00,102.0999984741211,100.80000305175781,100.80500030517578,1474000
98.85960388183594,105.07499694824219,2014-06-30 13:30:00,106.50499725341797,104.30000305175781,105.96499633789062,2919000
98.25273895263672,104.43000030517578,2014-07-01 13:30:00,105.49500274658203,104.41500091552734,105.11000061035156,1358600
97.99402618408203,104.15499877929688,2014-07-02 13:30:00,104.73999786376953,103.97000122070312,104.28500366210938,925600
98.86431121826172,105.08000183105469,2014-07-03 13:30:00,105.18000030517578,104.19000244140625,104.34500122070312,577200
98.0269546508789,104.19000244140625,2014-07-07 13:30:00,104.52999877929688,103.65499877929688,104.5,1244000
97.2836685180664,103.4000015258789,2014-07-08 13:30:00,104.43000030517578,103.34500122070312,103.94999694824219,960000
97.76351928710938,103.91000366210938,2014-07-09 13:30:00,104.05000305175781,103.19000244140625,103.9000015258789,849400
97.56124114990234,103.69499969482422,2014-07-10 13:30:00,103.90499877929688,102.5,102.82499694824219,1188000
97.8623046875,104.01499938964844,2014-07-11 13:30:00,104.0999984741211,102.8949966430664,103.5199966430664,701000
97.84349822998047,103.99500274658203,2014-07-14 13:30:00,104.47000122070312,103.95500183105469,104.24500274658203,631200
96.70036315917969,102.77999877929688,2014-07-15 13:30:00,104.74500274658203,102.69000244140625,104.36000061035156,1512400
96.80855560302734,102.8949966430664,2014-07-16 13:30:00,103.59500122070312,102.4749984741211,103.375,2035800
97.70706176757812,103.8499984741211,2014-07-17 13:30:00,104.875,102.51000213623047,102.51000213623047,1891000
98.57734680175781,104.7750015258789,2014-07-18 13:30:00,105.25,103.9800033569336,104.0999984741211,1398000
98.20101165771484,104.375,2014-07-21 13:30:00,104.90499877929688,104.11000061035156,104.29499816894531,1377600
98.84078979492188,105.05500030517578,2014-07-22 13:30:00,105.54499816894531,104.4749984741211,104.63999938964844,1163000
98.93486785888672,105.15499877929688,2014-07-23 13:30:00,105.83000183105469,104.86499786376953,105.08499908447266,1485000
98.7984619140625,105.01000213623047,2014-07-24 13:30:00,105.66000366210938,104.70999908447266,105.0,914600
98.25745391845703,104.43499755859375,2014-07-25 13:30:00,105.25,104.26499938964844,105.0,629400
98.16338348388672,104.33499908447266,2014-07-28 13:30:00,104.81999969482422,103.7750015258789,104.63999938964844,960000
96.43221282958984,102.49500274658203,2014-07-29 13:30:00,104.28500366210938,102.45500183105469,104.25,1429800
96.16876220703125,102.21499633789062,2014-07-30 13:30:00,103.33499908447266,101.80000305175781,102.625,1270400
93.31330108642578,99.18000030517578,2014-07-31 13:30:00,101.91000366210938,99.16999816894531,101.91000366210938,1586600
93.32742309570312,99.19499969482422,2014-08-01 13:30:00,99.62000274658203,98.25,98.48999786376953,1409200
94.37647247314453,100.30999755859375,2014-08-04 13:30:00,100.49500274658203,99.05500030517578,99.05500030517578,991000
93.24276733398438,99.1050033569336,2014-08-05 13:30:00,100.3499984741211,98.83999633789062,99.62999725341797,1059400
93.5626449584961,99.44499969482422,2014-08-06 13:30:00,99.90499877929688,98.81500244140625,98.94999694824219,1186600
93.13780975341797,98.66000366210938,2014-08-07 13:30:00,100.0,98.5,99.81500244140625,1035600
94.50664520263672,100.11000061035156,2014-08-08 13:30:00,100.19000244140625,98.51000213623047,98.8949966430664,763400
94.01576232910156,99.58999633789062,2014-08-11 13:30:00,100.55500030517578,99.58000183105469,100.32499694824219,753800
94.18096923828125,99.76499938964844,2014-08-12 13:30:00,99.99500274658203,99.23500061035156,99.67500305175781,557800
95.35154724121094,101.00499725341797,2014-08-13 13:30:00,101.05500030517578,99.5999984741211,100.36000061035156,815600
95.14389038085938,100.78500366210938,2014-08-14 13:30:00,101.05000305175781,100.45999908447266,100.7750015258789,867400
95.47428894042969,101.13500213623047,2014-08-15 13:30:00,101.88500213623047,100.43499755859375,101.02999877929688,882200
96.18229675292969,101.88500213623047,2014-08-18 13:30:00,101.96499633789062,101.11000061035156,101.1500015258789,974400
96.58824920654297,102.31500244140625,2014-08-19 13:30:00,102.6449966430664,101.91000366210938,102.05000305175781,814600
96.32862091064453,102.04000091552734,2014-08-20 13:30:00,102.37000274658203,101.59500122070312,102.0,939800
96.80065155029297,102.54000091552734,2014-08-21 13:30:00,103.0,102.04000091552734,102.3499984741211,929000
96.55047607421875,102.2750015258789,2014-08-22 13:30:00,102.7249984741211,102.21499633789062,102.55000305175781,644800
97.34345245361328,103.11499786376953,2014-08-25 13:30:00,103.18000030517578,102.45999908447266,102.55500030517578,921000
97.4520263671875,103.2300033569336,2014-08-26 13:30:00,103.42500305175781,102.7750015258789,103.42500305175781,871600
96.87617492675781,102.62000274658203,2014-08-27 13:30:00,103.32499694824219,102.28500366210938,103.05500030517578,859000
96.97057342529297,102.72000122070312,2014-08-28 13:30:00,103.05999755859375,102.18000030517578,102.34500122070312,758000
97.16881561279297,102.93000030517578,2014-08-29 13:30:00,103.0999984741211,102.6050033569336,102.97000122070312,777000
96.85255432128906,102.59500122070312,2014-09-02 13:30:00,103.2699966430664,102.28500366210938,103.19499969482422,858000
96.06902313232422,101.76499938964844,2014-09-03 13:30:00,103.05999755859375,101.6500015258789,102.86499786376953,1174400
96.11150360107422,101.80999755859375,2014-09-04 13:30:00,102.50499725341797,101.61000061035156,101.91500091552734,799000
96.27201080322266,101.9800033569336,2014-09-05 13:30:00,102.00499725341797,101.4749984741211,101.875,1059200
96.25310516357422,101.95999908447266,2014-09-08 13:30:00,102.68499755859375,101.61499786376953,101.8550033569336,656000
95.09196472167969,100.7300033569336,2014-09-09 13:30:00,102.1449966430664,100.55500030517578,102.05999755859375,836800
95.5639877319336,101.2300033569336,2014-09-10 13:30:00,101.32499694824219,100.05999755859375,100.58999633789062,804200
95.07307434082031,100.70999908447266,2014-09-11 13:30:00,101.06500244140625,100.2249984741211,100.49500274658203,900800
94.25177001953125,99.83999633789062,2014-09-12 13:30:00,100.88999938964844,99.4749984741211,100.66000366210938,949800
94.26593017578125,99.8550033569336,2014-09-15 13:30:00,100.19499969482422,99.23999786376953,99.87999725341797,992600
94.64826965332031,100.26000213623047,2014-09-16 13:30:00,100.93499755859375,99.26499938964844,99.69000244140625,1623600
95.2666015625,100.91500091552734,2014-09-17 13:30:00,101.44999694824219,100.41500091552734,100.7300033569336,1358600
95.8943862915039,101.58000183105469,2014-09-18 13:30:00,102.0199966430664,100.94499969482422,101.1050033569336,1057600
95.72917938232422,101.40499877929688,2014-09-19 13:30:00,102.58000183105469,101.38999938964844,101.9800033569336,1459000
94.25177001953125,99.83999633789062,2014-09-22 13:30:00,101.7300033569336,99.76000213623047,101.4800033569336,1357000
93.59095001220703,99.13999938964844,2014-09-23 13:30:00,99.96499633789062,99.04499816894531,99.62000274658203,1344200
94.6576919555664,100.2699966430664,2014-09-24 13:30:00,100.41500091552734,99.23999786376953,99.3499984741211,1175600
93.18030548095703,98.70500183105469,2014-09-25 13:30:00,99.80999755859375,98.70500183105469,99.69499969482422,1002600
93.67119598388672,99.2249984741211,2014-09-26 13:30:00,99.3499984741211,98.5,98.55999755859375,766800
94.14793395996094,99.7300033569336,2014-09-29 13:30:00,99.94499969482422,98.36499786376953,98.63999938964844,1099400
92.86405181884766,98.37000274658203,2014-09-30 13:30:00,99.69000244140625,98.19000244140625,99.54000091552734,1598800
90.23493194580078,95.58499908447266,2014-10-01 13:30:00,98.25,94.83499908447266,98.25,3029000
90.23493194580078,95.58499908447266,2014-10-02 13:30:00,95.94999694824219,93.94499969482422,95.43499755859375,1724800
90.555908203125,95.92500305175781,2014-10-03 13:30:00,96.83000183105469,95.36499786376953,96.01499938964844,1442600
90.28215026855469,95.63500213623047,2014-10-06 13:30:00,96.7699966430664,95.27999877929688,96.7699966430664,939400
87.99285888671875,93.20999908447266,2014-10-07 13:30:00,95.19499969482422,93.16500091552734,95.19499969482422,2348000
89.4608383178711,94.76499938964844,2014-10-08 13:30:00,94.87999725341797,92.54000091552734,93.2249984741211,2850200
87.80876922607422,93.01499938964844,2014-10-09 13:30:00,95.12999725341797,92.80500030517578,94.99500274658203,2205000
86.63818359375,91.7750015258789,2014-10-10 13:30:00,93.70500183105469,91.7300033569336,92.88999938964844,2004000
83.35297393798828,88.29499816894531,2014-10-13 13:30:00,91.99500274658203,88.08999633789062,91.6449966430664,2501000
83.82026672363281,88.79000091552734,2014-10-14 13:30:00,89.9800033569336,87.70999908447266,88.55999755859375,2546000
85.19856262207031,90.25,2014-10-15 13:30:00,90.56999969482422,86.50499725341797,87.68499755859375,3388200
85.82630920410156,90.91500091552734,2014-10-16 13:30:00,91.75,85.77999877929688,86.94999694824219,4098600
88.38463592529297,93.625,2014-10-17 13:30:00,94.18499755859375,91.82499694824219,92.31999969482422,3454600
90.2396469116211,95.58999633789062,2014-10-20 13:30:00,95.63500213623047,93.38500213623047,93.88999938964844,2413200
92.53363037109375,98.0199966430664,2014-10-21 13:30:00,98.13999938964844,95.9749984741211,95.9749984741211,2398800
91.43385314941406,96.8550033569336,2014-10-22 13:30:00,99.25,96.6500015258789,98.62999725341797,2937400
91.99552154541016,97.44999694824219,2014-10-23 13:30:00,98.28500366210938,97.05500030517578,97.98500061035156,1712000
92.44395446777344,97.92500305175781,2014-10-24 13:30:00,98.05500030517578,96.30999755859375,97.43000030517578,1615000
90.909912109375,96.30000305175781,2014-10-27 13:30:00,96.91999816894531,95.5999984741211,96.58000183105469,2100200
92.22682189941406,97.69499969482422,2014-10-28 13:30:00,98.43000030517578,96.9800033569336,97.38500213623047,2245800
90.65031433105469,96.0250015258789,2014-10-29 13:30:00,97.71499633789062,95.38999938964844,97.50499725341797,3746800
90.79190063476562,96.17500305175781,2014-10-30 13:30:00,96.72000122070312,95.38999938964844,95.66999816894531,1368200
96.1445541381836,101.84500122070312,2014-10-31 13:30:00,102.25,96.7750015258789,97.3949966430664,5398200
94.57745361328125,100.18499755859375,2014-11-03 14:30:00,102.38999938964844,99.94000244140625,102.0250015258789,2409200
93.68063354492188,99.23500061035156,2014-11-04 14:30:00,100.3949966430664,98.63500213623047,100.125,1712600
96.88089752197266,102.625,2014-11-05 14:30:00,102.7300033569336,99.82499694824219,100.20999908447266,2963400
97.5959701538086,103.04499816894531,2014-11-06 14:30:00,103.12999725341797,101.58000183105469,102.5,1990200
97.97953796386719,103.44999694824219,2014-11-07 14:30:00,103.74500274658203,101.52999877929688,101.52999877929688,1819400
97.68120574951172,103.13500213623047,2014-11-10 14:30:00,103.66500091552734,102.66999816894531,103.28500366210938,1232000
97.20291900634766,102.62999725341797,2014-11-11 14:30:00,103.50499725341797,102.3550033569336,103.125,1409600
96.5588607788086,101.94999694824219,2014-11-12 14:30:00,102.79499816894531,101.58000183105469,102.62000274658203,2076600
97.1886978149414,102.61499786376953,2014-11-13 14:30:00,103.49500274658203,101.50499725341797,102.11499786376953,1980000
96.5588607788086,101.94999694824219,2014-11-14 14:30:00,103.17500305175781,101.73500061035156,102.55500030517578,1606400
97.23606872558594,102.66500091552734,2014-11-17 14:30:00,103.18499755859375,101.70500183105469,102.0,1093200
98.73724365234375,104.25,2014-11-18 14:30:00,104.375,102.17500305175781,102.4749984741211,1803000
99.7601318359375,105.33000183105469,2014-11-19 14:30:00,105.54000091552734,104.01000213623047,104.34500122070312,2718600
100.70726013183594,106.33000183105469,2014-11-20 14:30:00,106.44000244140625,104.80500030517578,104.91999816894531,1405800
101.98114776611328,107.67500305175781,2014-11-21 14:30:00,108.86499786376953,106.8499984741211,107.5199966430664,2580800
102.08531188964844,107.78500366210938,2014-11-24 14:30:00,108.2699966430664,107.2249984741211,107.80000305175781,2368000
102.00479125976562,107.69999694824219,2014-11-25 14:30:00,108.72000122070312,107.58999633789062,107.58999633789062,1364000
102.73882293701172,108.4749984741211,2014-11-26 14:30:00,108.56500244140625,107.2750015258789,107.57499694824219,909200
103.62438201904297,109.41000366210938,2014-11-28 14:30:00,109.7699966430664,108.23999786376953,109.1500015258789,1286400
104.1216049194336,109.93499755859375,2014-12-01 14:30:00,110.38999938964844,108.3949966430664,108.7300033569336,3195800
103.77117156982422,109.56500244140625,2014-12-02 14:30:00,111.12000274658203,108.9749984741211,110.6050033569336,1815200
105.72698974609375,111.62999725341797,2014-12-03 14:30:00,111.81500244140625,109.56500244140625,109.80000305175781,1591600
105.9400863647461,111.8550033569336,2014-12-04 14:30:00,112.58499908447266,111.2300033569336,111.55500030517578,2052800
105.5328369140625,111.42500305175781,2014-12-05 14:30:00,112.7249984741211,111.2249984741211,111.94999694824219,1527800
105.52809143066406,111.41999816894531,2014-12-08 14:30:00,111.9749984741211,110.83499908447266,111.19999694824219,1805200
106.87774658203125,112.84500122070312,2014-12-09 14:30:00,112.8949966430664,110.50499725341797,110.50499725341797,1781200
104.58570861816406,110.42500305175781,2014-12-10 14:30:00,112.80500030517578,110.23999786376953,112.80500030517578,1528000
105.41444396972656,111.30000305175781,2014-12-11 14:30:00,112.15499877929688,110.23500061035156,110.43000030517578,1498800
104.09794616699219,109.91000366210938,2014-12-12 14:30:00,111.20500183105469,109.87999725341797,110.81999969482422,2742000
103.28816223144531,109.05500030517578,2014-12-15 14:30:00,111.23500061035156,108.11499786376953,110.51000213623047,2577400
102.60149383544922,108.33000183105469,2014-12-16 14:30:00,110.66500091552734,108.0199966430664,108.1449966430664,1945000
105.25341796875,111.12999725341797,2014-12-17 14:30:00,111.5199966430664,108.34500122070312,108.54499816894531,1943000
107.50283813476562,113.50499725341797,2014-12-18 14:30:00,113.55000305175781,111.45500183105469,112.21499633789062,1510200
107.92430114746094,113.94999694824219,2014-12-19 14:30:00,114.80000305175781,113.50499725341797,114.04000091552734,2125800
108.72936248779297,114.80000305175781,2014-12-22 14:30:00,115.01499938964844,113.66500091552734,114.31999969482422,1643600
109.42549896240234,115.53500366210938,2014-12-23 14:30:00,116.08000183105469,115.0,115.08999633789062,1018800
109.44917297363281,115.55999755859375,2014-12-24 14:30:00,115.91999816894531,115.19000244140625,115.75,541600
109.6717529296875,115.79499816894531,2014-12-26 14:30:00,116.3949966430664,115.29499816894531,115.69000244140625,605000
110.08373260498047,116.2300033569336,2014-12-29 14:30:00,116.58000183105469,115.30500030517578,115.45500183105469,868600
109.70488739013672,115.83000183105469,2014-12-30 14:30:00,116.30500030517578,115.56500244140625,115.76499938964844,843200
109.46337890625,115.57499694824219,2014-12-31 14:30:00,116.83499908447266,115.51000213623047,116.125,1267200
108.63465118408203,114.69999694824219,2015-01-02 14:30:00,116.16999816894531,113.79499816894531,115.57499694824219,444300
105.8311767578125,111.73999786376953,2015-01-05 14:30:00,113.875,111.29499816894531,113.52999877929688,965900
105.57070922851562,111.46499633789062,2015-01-06 14:30:00,112.6500015258789,109.90499877929688,112.3550033569336,855300
106.03955078125,111.95999908447266,2015-01-07 14:30:00,112.3499984741211,110.69499969482422,111.48999786376953,1183200
108.86195373535156,114.94000244140625,2015-01-08 14:30:00,115.34500122070312,112.46499633789062,113.12000274658203,1037900
107.48389434814453,113.48500061035156,2015-01-09 14:30:00,115.38500213623047,112.875,115.11499786376953,799500
107.1429214477539,113.125,2015-01-12 14:30:00,114.0250015258789,112.41500091552734,113.5,719400
107.49336242675781,113.49500274658203,2015-01-13 14:30:00,115.12000274658203,112.23500061035156,113.70500183105469,828200
107.48389434814453,113.48500061035156,2015-01-14 14:30:00,113.5199966430664,111.26499938964844,112.16000366210938,1277900
107.1192398071289,113.0999984741211,2015-01-15 14:30:00,116.98999786376953,112.38500213623047,114.55500030517578,1552500
109.09874725341797,115.19000244140625,2015-01-16 14:30:00,115.44999694824219,112.52999877929688,113.03500366210938,943200
108.04743194580078,114.08000183105469,2015-01-20 14:30:00,116.0,113.08000183105469,115.54499816894531,1041000
107.98587036132812,114.01499938964844,2015-01-21 14:30:00,114.80999755859375,113.1050033569336,113.73500061035156,734500
109.55809783935547,115.67500305175781,2015-01-22 14:30:00,115.9800033569336,113.15499877929688,114.3550033569336,587700
107.88167572021484,113.90499877929688,2015-01-23 14:30:00,115.5,113.88500213623047,115.5,476100
107.88643646240234,113.91000366210938,2015-01-26 14:30:00,114.07499694824219,112.6050033569336,113.55000305175781,501100
107.00560760498047,112.9800033569336,2015-01-27 14:30:00,114.01499938964844,112.12999725341797,113.0,623200
105.00718688964844,110.87000274658203,2015-01-28 14:30:00,113.8550033569336,110.62000274658203,113.06500244140625,705600
106.88719177246094,112.8550033569336,2015-01-29 14:30:00,113.03500366210938,110.15499877929688,111.0,764400
105.54702758789062,111.44000244140625,2015-01-30 14:30:00,113.02999877929688,111.37000274658203,111.37000274658203,1354200
105.9495620727539,111.86499786376953,2015-02-02 14:30:00,112.12000274658203,109.94000244140625,110.625,794800
107.45073699951172,113.44999694824219,2015-02-03 14:30:00,113.875,111.91999816894531,113.21499633789062,664000
107.71119689941406,113.7249984741211,2015-02-04 14:30:00,114.47000122070312,112.50499725341797,113.30000305175781,550000
109.093994140625,115.18499755859375,2015-02-05 14:30:00,115.61499786376953,113.91500091552734,114.4800033569336,676400
109.32603454589844,115.43000030517578,2015-02-06 14:30:00,116.0,114.55500030517578,115.08999633789062,568400
107.4128646850586,113.41000366210938,2015-02-09 14:30:00,115.43000030517578,113.08999633789062,115.18000030517578,870900
108.08531188964844,114.12000274658203,2015-02-10 14:30:00,114.7249984741211,112.94999694824219,114.58999633789062,502500
108.07585144042969,114.11000061035156,2015-02-11 14:30:00,114.5999984741211,113.45500183105469,113.95999908447266,388000
110.35367584228516,116.51499938964844,2015-02-12 14:30:00,116.79499816894531,114.55999755859375,115.12999725341797,812400
112.12478637695312,118.38500213623047,2015-02-13 14:30:00,118.42500305175781,116.55000305175781,116.84500122070312,625600
111.6891098022461,117.92500305175781,2015-02-17 14:30:00,118.48999786376953,116.75499725341797,117.1500015258789,869600
112.5130386352539,118.12000274658203,2015-02-18 14:30:00,118.19000244140625,116.61499786376953,117.1500015258789,572000
112.16061401367188,117.75,2015-02-19 14:30:00,118.56999969482422,117.01000213623047,117.23999786376953,948800
112.70355224609375,118.31999969482422,2015-02-20 14:30:00,118.5999984741211,116.05000305175781,117.31500244140625,673700
112.63211822509766,118.24500274658203,2015-02-23 14:30:00,118.55000305175781,117.41000366210938,117.6050033569336,673800
112.76547241210938,118.38500213623047,2015-02-24 14:30:00,118.5999984741211,117.75499725341797,118.42500305175781,497400
112.24156188964844,117.83499908447266,2015-02-25 14:30:00,118.70500183105469,117.58499908447266,118.0,543100
112.32254028320312,117.91999816894531,2015-02-26 14:30:00,118.40499877929688,117.33000183105469,117.62000274658203,483800
112.10346984863281,117.69000244140625,2015-02-27 14:30:00,118.4800033569336,117.05000305175781,117.93499755859375,697400
113.20838165283203,118.8499984741211,2015-03-02 14:30:00,118.875,117.69000244140625,117.69000244140625,727400
111.70340728759766,117.2699966430664,2015-03-03 14:30:00,118.48999786376953,116.91500091552734,118.44499969482422,618800
112.08441925048828,117.66999816894531,2015-03-04 14:30:00,118.94999694824219,116.1050033569336,116.55999755859375,843500
112.1368179321289,117.7249984741211,2015-03-05 14:30:00,118.13500213623047,117.05999755859375,117.91500091552734,487200
110.47940063476562,115.98500061035156,2015-03-06 14:30:00,117.38500213623047,115.82499694824219,116.68499755859375,545000
110.63177490234375,116.1449966430664,2015-03-09 13:30:00,116.86000061035156,115.76000213623047,116.22000122070312,709300
108.43143463134766,113.83499908447266,2015-03-10 13:30:00,115.05999755859375,113.81999969482422,114.96499633789062,803400
107.24555206298828,112.58999633789062,2015-03-11 13:30:00,114.07499694824219,112.50499725341797,113.91000366210938,1594200
109.39826965332031,114.8499984741211,2015-03-12 13:30:00,114.91500091552734,112.55500030517578,112.69499969482422,493200
108.5457534790039,113.95500183105469,2015-03-13 13:30:00,114.74500274658203,113.16999816894531,114.3550033569336,590800
109.5792465209961,115.04000091552734,2015-03-16 13:30:00,115.125,114.01499938964844,114.37000274658203,545600
108.23617553710938,113.62999725341797,2015-03-17 13:30:00,114.7699966430664,113.06500244140625,114.23500061035156,558100
109.36968231201172,114.81999969482422,2015-03-18 13:30:00,116.08000183105469,111.5,112.95500183105469,1055100
107.71704864501953,113.08499908447266,2015-03-19 13:30:00,114.48500061035156,112.92500305175781,114.08499908447266,1015800
109.09346771240234,114.52999877929688,2015-03-20 13:30:00,115.125,112.88999938964844,113.66999816894531,777500
107.84087371826172,113.21499633789062,2015-03-23 13:30:00,114.91000366210938,113.20999908447266,114.36499786376953,645100
107.39319610595703,112.74500274658203,2015-03-24 13:30:00,113.93499755859375,112.74500274658203,113.19499969482422,586400
105.95010375976562,111.2300033569336,2015-03-25 13:30:00,113.51499938964844,111.13999938964844,112.8949966430664,653400
105.39763641357422,110.6500015258789,2015-03-26 13:30:00,111.25,110.0250015258789,110.29499816894531,562600
106.188232421875,111.4800033569336,2015-03-27 13:30:00,112.0,110.46499633789062,111.01000213623047,611400
106.91693115234375,112.24500274658203,2015-03-30 13:30:00,113.0250015258789,111.57499694824219,112.1500015258789,632600
107.4169921875,112.7699966430664,2015-03-31 13:30:00,113.19999694824219,111.08000183105469,111.46499633789062,918500
106.90264129638672,112.2300033569336,2015-04-01 13:30:00,112.9800033569336,111.17500305175781,112.67500305175781,811800
106.48353576660156,111.79000091552734,2015-04-02 13:30:00,112.63500213623047,111.46499633789062,111.70999908447266,710500
106.78833770751953,112.11000061035156,2015-04-06 13:30:00,112.48500061035156,111.0,111.33000183105469,550300
107.11219787597656,112.44999694824219,2015-04-07 13:30:00,113.16500091552734,111.70500183105469,112.0199966430664,593700
107.697998046875,113.06500244140625,2015-04-08 13:30:00,113.33000183105469,112.16000366210938,112.16000366210938,810000
108.75054931640625,114.16999816894531,2015-04-09 13:30:00,114.26000213623047,112.70999908447266,113.18499755859375,588600
109.30302429199219,114.75,2015-04-10 13:30:00,114.94999694824219,113.51499938964844,114.5,704300
109.34587860107422,114.79499816894531,2015-04-13 13:30:00,115.375,114.20999908447266,114.67500305175781,672300
108.56957244873047,113.9800033569336,2015-04-14 13:30:00,114.86000061035156,113.45999908447266,114.70500183105469,640600
108.24093627929688,113.63500213623047,2015-04-15 13:30:00,114.54499816894531,113.26000213623047,114.37000274658203,1849800
107.99327087402344,113.375,2015-04-16 13:30:00,116.55500030517578,113.28500366210938,116.51499938964844,1246300
107.92662048339844,113.30500030517578,2015-04-17 13:30:00,114.00499725341797,112.17500305175781,112.56500244140625,1105900
108.43621826171875,113.83999633789062,2015-04-20 13:30:00,114.47000122070312,112.73500061035156,114.0199966430664,956000
108.13616943359375,113.5250015258789,2015-04-21 13:30:00,114.13999938964844,112.78500366210938,114.1050033569336,1181400
107.82659149169922,113.19999694824219,2015-04-22 13:30:00,114.19999694824219,112.74500274658203,113.58000183105469,872200
107.57893371582031,112.94000244140625,2015-04-23 13:30:00,113.43000030517578,112.68499755859375,113.04000091552734,427300
106.35492706298828,111.65499877929688,2015-04-24 13:30:00,113.40499877929688,111.25,112.93499755859375,864800
105.18331909179688,110.42500305175781,2015-04-27 13:30:00,111.9800033569336,110.19000244140625,111.7300033569336,1084700
105.14044952392578,110.37999725341797,2015-04-28 13:30:00,110.66999816894531,109.30000305175781,110.26499938964844,978600
105.8119888305664,111.08499908447266,2015-04-29 13:30:00,111.16500091552734,109.56500244140625,109.8499984741211,876700
105.52145385742188,110.77999877929688,2015-04-30 13:30:00,111.58499908447266,110.01000213623047,110.23999786376953,1108900
106.94548797607422,112.2750015258789,2015-05-01 13:30:00,112.40499877929688,110.58000183105469,110.86499786376953,757800
107.1740951538086,112.51499938964844,2015-05-04 13:30:00,113.0,112.28500366210938,112.44000244140625,545400
105.53099060058594,110.79000091552734,2015-05-05 13:30:00,113.48999786376953,110.70500183105469,113.25,710400
105.75484466552734,111.0250015258789,2015-05-06 13:30:00,111.4000015258789,110.33000183105469,111.33000183105469,705700
107.816162109375,112.45500183105469,2015-05-07 13:30:00,112.87999725341797,110.33999633789062,110.75,1082500
109.80075073242188,114.5250015258789,2015-05-08 13:30:00,115.26000213623047,113.4000015258789,113.88999938964844,792600
108.97624206542969,113.66500091552734,2015-05-11 13:30:00,115.08999633789062,113.6050033569336,114.26499938964844,861000
107.61482238769531,112.24500274658203,2015-05-12 13:30:00,113.66000366210938,112.20999908447266,113.25499725341797,623800
108.05103302001953,112.69999694824219,2015-05-13 13:30:00,112.9000015258789,111.25,112.25499725341797,772300
109.68091583251953,114.4000015258789,2015-05-14 13:30:00,114.5,113.0,113.61499786376953,763700
111.07110595703125,115.8499984741211,2015-05-15 13:30:00,115.88999938964844,113.91999816894531,114.33999633789062,631500
110.70197296142578,115.46499633789062,2015-05-18 13:30:00,115.8499984741211,114.75,115.8499984741211,921300
110.25137329101562,114.99500274658203,2015-05-19 13:30:00,115.95500183105469,114.69499969482422,115.44000244140625,1481600
109.74323272705078,114.46499633789062,2015-05-20 13:30:00,115.38999938964844,114.11499786376953,115.0,642400
109.88703918457031,114.61499786376953,2015-05-21 13:30:00,115.11499786376953,114.12000274658203,114.16000366210938,332200
109.86786651611328,114.59500122070312,2015-05-22 13:30:00,115.16000366210938,114.31999969482422,114.31999969482422,371400
108.6838150024414,113.36000061035156,2015-05-26 13:30:00,114.58999633789062,112.875,114.20999908447266,735400
109.84391021728516,114.56999969482422,2015-05-27 13:30:00,114.82499694824219,113.61000061035156,113.76000213623047,716900
110.16988372802734,114.91000366210938,2015-05-28 13:30:00,115.06500244140625,113.67500305175781,114.1449966430664,615400
109.72406768798828,114.44499969482422,2015-05-29 13:30:00,115.16000366210938,114.0199966430664,114.63500213623047,599900
109.79116821289062,114.51499938964844,2015-06-01 13:30:00,115.12999725341797,113.63999938964844,114.08499908447266,903400
109.4172592163086,114.125,2015-06-02 13:30:00,114.95500183105469,113.50499725341797,114.33499908447266,384300
110.25137329101562,114.99500274658203,2015-06-03 13:30:00,115.05000305175781,114.01000213623047,114.66500091552734,1114000
109.66653442382812,114.38500213623047,2015-06-04 13:30:00,115.125,114.12000274658203,114.46499633789062,703300
109.59941864013672,114.31500244140625,2015-06-05 13:30:00,114.58000183105469,113.23500061035156,113.95999908447266,522900
109.34535217285156,114.05000305175781,2015-06-08 13:30:00,114.28500366210938,113.6050033569336,114.20500183105469,525500
109.89664459228516,114.625,2015-06-09 13:30:00,115.1449966430664,113.80000305175781,114.23999786376953,535300
111.15738677978516,115.94000244140625,2015-06-10 13:30:00,116.49500274658203,115.00499725341797,115.21499633789062,989700
112.16888427734375,116.99500274658203,2015-06-11 13:30:00,117.4749984741211,115.4800033569336,116.40499877929688,903100
111.81413269042969,116.625,2015-06-12 13:30:00,116.97000122070312,116.09500122070312,116.82499694824219,580400
110.66842651367188,115.43000030517578,2015-06-15 13:30:00,116.13999938964844,114.94999694824219,115.63999938964844,990500
111.21491241455078,116.0,2015-06-16 13:30:00,116.19000244140625,115.0,115.22000122070312,1286900
111.8572769165039,116.66999816894531,2015-06-17 13:30:00,116.83000183105469,115.13999938964844,116.2699966430664,2525400
112.95025634765625,117.80999755859375,2015-06-18 13:30:00,118.23999786376953,116.79000091552734,117.12000274658203,1668900
112.46128845214844,117.30000305175781,2015-06-19 13:30:00,118.0199966430664,116.81999969482422,117.16000366210938,2210000
113.29540252685547,118.16999816894531,2015-06-22 13:30:00,118.63999938964844,117.76000213623047,118.0,901000
113.41044616699219,118.29000091552734,2015-06-23 13:30:00,118.69000244140625,117.76000213623047,118.4800033569336,1174900
113.1036605834961,117.97000122070312,2015-06-24 13:30:00,118.48999786376953,117.9000015258789,118.27999877929688,1918300
112.88314056396484,117.73999786376953,2015-06-25 13:30:00,118.55999755859375,117.69999694824219,118.0999984741211,1207800
113.14199829101562,118.01000213623047,2015-06-26 13:30:00,118.2300033569336,117.5999984741211,118.13999938964844,751300
110.23698425292969,114.9800033569336,2015-06-29 13:30:00,117.30999755859375,114.87999725341797,117.13999938964844,996800
109.98773193359375,114.72000122070312,2015-06-30 13:30:00,116.0,114.4000015258789,115.69000244140625,1114600
111.69429779052734,116.5,2015-07-01 13:30:00,116.55999755859375,115.2300033569336,115.77999877929688,1256400
111.12862396240234,115.91000366210938,2015-07-02 13:30:00,117.31999969482422,115.23999786376953,117.1500015258789,943200
110.35203552246094,115.0999984741211,2015-07-06 13:30:00,115.9800033569336,114.20999908447266,114.80999755859375,1425900
110.31368255615234,115.05999755859375,2015-07-07 13:30:00,115.33000183105469,113.36000061035156,115.33000183105469,1640800
108.43453979492188,113.0999984741211,2015-07-08 13:30:00,114.48999786376953,113.0199966430664,113.91000366210938,1537000
107.99351501464844,112.63999938964844,2015-07-09 13:30:00,114.8499984741211,112.62999725341797,114.66000366210938,1718900
110.16030883789062,114.9000015258789,2015-07-10 13:30:00,115.02999877929688,113.54000091552734,114.12000274658203,1364100
111.72306060791016,116.52999877929688,2015-07-13 13:30:00,116.61000061035156,115.95999908447266,116.19000244140625,1474700
112.75850677490234,117.61000061035156,2015-07-14 13:30:00,117.88999938964844,116.45999908447266,116.5,1185100
112.15448760986328,116.9800033569336,2015-07-15 13:30:00,117.98999786376953,116.79000091552734,117.31999969482422,1509800
107.20734405517578,111.81999969482422,2015-07-16 13:30:00,118.2699966430664,111.54000091552734,117.08999633789062,5355400
107.18816375732422,111.80000305175781,2015-07-17 13:30:00,113.54000091552734,111.66000366210938,112.45999908447266,3351900
106.27735900878906,110.8499984741211,2015-07-20 13:30:00,112.0,110.62000274658203,111.94999694824219,2146900
103.74624633789062,108.20999908447266,2015-07-21 13:30:00,111.55000305175781,107.86000061035156,111.12000274658203,3796700
103.63121032714844,108.08999633789062,2015-07-22 13:30:00,108.80999755859375,107.29000091552734,108.12000274658203,2440900
101.2726821899414,105.62999725341797,2015-07-23 13:30:00,108.19000244140625,105.0999984741211,108.0999984741211,3033200
98.9908676147461,103.25,2015-07-24 13:30:00,105.5999984741211,102.19000244140625,105.54000091552734,3111900
98.16633605957031,102.38999938964844,2015-07-27 13:30:00,103.20999908447266,101.61000061035156,102.69000244140625,2766000
102.50948333740234,106.91999816894531,2015-07-28 13:30:00,107.19000244140625,102.63999938964844,103.01000213623047,3080800
104.09140014648438,108.56999969482422,2015-07-29 13:30:00,108.98999786376953,106.83999633789062,107.08000183105469,2653500
104.04347229003906,108.5199966430664,2015-07-30 13:30:00,108.76000213623047,107.56999969482422,108.5,1233500
103.90924072265625,108.37999725341797,2015-07-31 13:30:00,109.37000274658203,108.18000030517578,109.0,1362400
103.4202880859375,107.87000274658203,2015-08-03 13:30:00,108.70999908447266,107.06999969482422,107.30999755859375,1535400
102.14514923095703,106.54000091552734,2015-08-04 13:30:00,108.45999908447266,106.19999694824219,108.0,1598100
102.19307708740234,106.58999633789062,2015-08-05 13:30:00,108.08999633789062,106.26000213623047,107.69000244140625,1207700
101.21183013916016,105.20999908447266,2015-08-06 13:30:00,106.54000091552734,104.91000366210938,106.23999786376953,1507300
99.97087097167969,103.91999816894531,2015-08-07 13:30:00,105.1500015258789,103.73999786376953,104.86000061035156,1589300
102.55863952636719,106.61000061035156,2015-08-10 13:30:00,106.61000061035156,104.4000015258789,104.72000122070312,1196600
100.44225311279297,104.41000366210938,2015-08-11 13:30:00,105.41000366210938,103.80000305175781,105.36000061035156,1476900
100.0766830444336,104.02999877929688,2015-08-12 13:30:00,104.20999908447266,102.25,103.63999938964844,3558600
99.58606719970703,103.5199966430664,2015-08-13 13:30:00,104.4000015258789,103.45999908447266,104.26000213623047,1230500
100.72122955322266,104.69999694824219,2015-08-14 13:30:00,104.80000305175781,103.38999938964844,103.63999938964844,1344700
100.2979507446289,104.26000213623047,2015-08-17 13:30:00,105.08999633789062,103.8499984741211,104.20999908447266,1578000
100.59617614746094,104.56999969482422,2015-08-18 13:30:00,105.70999908447266,104.36000061035156,104.41999816894531,2426300
98.60482788085938,102.5,2015-08-19 13:30:00,104.08999633789062,102.1500015258789,103.77999877929688,2175200
96.07479095458984,99.87000274658203,2015-08-20 13:30:00,102.4000015258789,99.87000274658203,101.91000366210938,2302400
93.51586151123047,97.20999908447266,2015-08-21 13:30:00,99.30999755859375,97.12000274658203,98.55999755859375,2543000
88.75397491455078,92.26000213623047,2015-08-24 13:30:00,95.94999694824219,91.0,92.02999877929688,3951100
87.5899429321289,91.05000305175781,2015-08-25 13:30:00,94.87000274658203,91.0199966430664,94.87000274658203,2960900
89.56204223632812,93.0999984741211,2015-08-26 13:30:00,93.22000122070312,91.0,92.68000030517578,3991700
91.57262420654297,95.19000244140625,2015-08-27 13:30:00,95.8499984741211,93.2699966430664,94.66999816894531,4585900
92.45765686035156,96.11000061035156,2015-08-28 13:30:00,96.37999725341797,94.8499984741211,94.8499984741211,1709800
91.6688232421875,95.29000091552734,2015-08-31 13:30:00,96.66000366210938,94.76000213623047,95.55999755859375,1707400
87.8785400390625,91.3499984741211,2015-09-01 13:30:00,93.62999725341797,90.80999755859375,93.2699966430664,2433800
89.9757080078125,93.52999877929688,2015-09-02 13:30:00,93.52999877929688,91.62000274658203,92.8499984741211,2497700
90.40862274169922,93.9800033569336,2015-09-03 13:30:00,94.88999938964844,93.55999755859375,94.05999755859375,1471700
89.76406860351562,93.30999755859375,2015-09-04 13:30:00,93.83999633789062,92.29000091552734,92.66999816894531,2149400
92.73664093017578,96.4000015258789,2015-09-08 13:30:00,96.41000366210938,94.5199966430664,94.94000244140625,1709600
92.44804382324219,96.0999984741211,2015-09-09 13:30:00,97.87999725341797,95.97000122070312,97.36000061035156,2921400
92.96752166748047,96.63999938964844,2015-09-10 13:30:00,97.38999938964844,95.56999969482422,96.08999633789062,2114900
93.04447937011719,96.72000122070312,2015-09-11 13:30:00,96.77999877929688,95.41999816894531,96.30000305175781,1472600
90.58175659179688,94.16000366210938,2015-09-14 13:30:00,96.7699966430664,93.73999786376953,96.30999755859375,2396200
90.69720458984375,94.27999877929688,2015-09-15 13:30:00,95.33000183105469,93.66999816894531,94.16000366210938,2384400
91.45718383789062,95.06999969482422,2015-09-16 13:30:00,95.36000061035156,94.31999969482422,94.41999816894531,1827500
90.87036895751953,94.45999908447266,2015-09-17 13:30:00,96.04000091552734,94.11000061035156,95.06999969482422,2171400
89.64863586425781,93.19000244140625,2015-09-18 13:30:00,93.98999786376953,92.7300033569336,93.11000061035156,2200800
89.89875030517578,93.44999694824219,2015-09-21 13:30:00,94.33000183105469,93.0199966430664,93.55000305175781,1186600
88.13829040527344,91.62000274658203,2015-09-22 13:30:00,92.56999969482422,90.54000091552734,92.2300033569336,1904700
86.52213287353516,89.94000244140625,2015-09-23 13:30:00,92.16999816894531,89.80000305175781,91.75,1698800
84.76166534423828,88.11000061035156,2015-09-24 13:30:00,89.45999908447266,87.19000244140625,89.05000305175781,3718200
84.98292541503906,88.33999633789062,2015-09-25 13:30:00,89.2300033569336,87.62999725341797,88.66000366210938,1507100
81.29846954345703,84.51000213623047,2015-09-28 13:30:00,87.83000183105469,84.4000015258789,87.5,2321800
82.68376159667969,85.94999694824219,2015-09-29 13:30:00,86.31999969482422,84.5,84.69000244140625,2483700
84.35763549804688,87.69000244140625,2015-09-30 13:30:00,88.22000122070312,86.94999694824219,87.08999633789062,2920700
86.70491027832031,90.12999725341797,2015-10-01 13:30:00,90.18000030517578,82.93000030517578,82.93000030517578,3581500
89.13877868652344,92.66000366210938,2015-10-02 13:30:00,92.72000122070312,88.3499984741211,89.05000305175781,2322000
90.99542999267578,94.58999633789062,2015-10-05 13:30:00,94.8499984741211,93.19999694824219,93.44000244140625,1973100
89.85064697265625,93.4000015258789,2015-10-06 13:30:00,95.19999694824219,93.25,94.61000061035156,2351700
90.72605895996094,94.30999755859375,2015-10-07 13:30:00,94.33999633789062,92.4800033569336,92.9000015258789,2207500
92.13058471679688,95.7699966430664,2015-10-08 13:30:00,95.98999786376953,93.79000091552734,94.16999816894531,1293600
92.32298278808594,95.97000122070312,2015-10-09 13:30:00,96.45999908447266,95.01000213623047,95.69999694824219,1695300
93.64090728759766,97.33999633789062,2015-10-12 13:30:00,97.70999908447266,96.01000213623047,96.66000366210938,1818700
93.48700714111328,97.18000030517578,2015-10-13 13:30:00,98.05000305175781,95.87000274658203,96.54000091552734,2226700
93.62167358398438,97.31999969482422,2015-10-14 13:30:00,98.2300033569336,96.76000213623047,96.8499984741211,2241800
95.48796844482422,99.26000213623047,2015-10-15 13:30:00,99.37999725341797,96.30999755859375,97.80999755859375,3253600
96.91171264648438,100.73999786376953,2015-10-16 13:30:00,103.26000213623047,99.98999786376953,100.19999694824219,3795600
97.33499908447266,101.18000030517578,2015-10-19 13:30:00,101.27999877929688,99.4000015258789,100.02999877929688,1295800
97.52738952636719,101.37999725341797,2015-10-20 13:30:00,102.4000015258789,100.75,101.16999816894531,1435700
96.81552124023438,100.63999938964844,2015-10-21 13:30:00,101.8499984741211,100.0,101.72000122070312,1977600
99.68226623535156,103.62000274658203,2015-10-22 13:30:00,104.0,101.33999633789062,101.5999984741211,2496900
100.03819274902344,103.98999786376953,2015-10-23 13:30:00,104.87999725341797,103.7300033569336,104.5,1546600
99.9804916381836,103.93000030517578,2015-10-26 13:30:00,104.4800033569336,103.41999816894531,104.0999984741211,1279200
99.01850128173828,102.93000030517578,2015-10-27 13:30:00,104.19000244140625,102.62999725341797,103.47000122070312,1315200
100.36528015136719,104.33000183105469,2015-10-28 13:30:00,104.3499984741211,102.70999908447266,103.47000122070312,1040500
100.31719207763672,104.27999877929688,2015-10-29 13:30:00,104.66999816894531,103.58000183105469,104.4000015258789,1099800
100.2979507446289,104.26000213623047,2015-10-30 13:30:00,104.77999877929688,103.68000030517578,104.58000183105469,1519900
100.04782104492188,104.0,2015-11-02 14:30:00,104.69000244140625,103.36000061035156,104.22000122070312,1457200
100.23062133789062,104.19000244140625,2015-11-03 14:30:00,104.79000091552734,103.66000366210938,104.05000305175781,1012600
99.91314697265625,103.86000061035156,2015-11-04 14:30:00,104.72000122070312,103.79000091552734,104.6500015258789,730400
99.28784942626953,103.20999908447266,2015-11-05 14:30:00,104.01000213623047,102.44000244140625,103.72000122070312,910000
99.43265533447266,103.0,2015-11-06 14:30:00,103.26000213623047,101.83000183105469,102.48999786376953,1012100
98.20665740966797,101.7300033569336,2015-11-09 14:30:00,102.7699966430664,100.75,102.70999908447266,893100
97.6177749633789,101.12000274658203,2015-11-10 14:30:00,101.8499984741211,100.37999725341797,101.38999938964844,1316200
98.0907974243164,101.61000061035156,2015-11-11 14:30:00,101.97000122070312,100.8499984741211,101.51000213623047,1010800
95.77391815185547,99.20999908447266,2015-11-12 14:30:00,101.12000274658203,99.20999908447266,100.61000061035156,1903900
97.33781433105469,100.83000183105469,2015-11-13 14:30:00,101.4800033569336,98.86000061035156,99.33999633789062,1938300
98.41902160644531,101.94999694824219,2015-11-16 14:30:00,102.12000274658203,100.2300033569336,100.91000366210938,1766600
98.18734741210938,101.70999908447266,2015-11-17 14:30:00,103.05999755859375,101.44999694824219,101.9000015258789,1381100
100.62004852294922,104.2300033569336,2015-11-18 14:30:00,104.5199966430664,101.55000305175781,101.80999755859375,2128300
99.78984069824219,103.37000274658203,2015-11-19 14:30:00,104.56999969482422,102.87999725341797,104.2300033569336,1252200
100.99656677246094,104.62000274658203,2015-11-20 14:30:00,105.08000183105469,103.30999755859375,103.5,1761000
101.8171157836914,105.47000122070312,2015-11-23 14:30:00,106.02999877929688,104.29000091552734,105.0,1999700
101.83641052246094,105.48999786376953,2015-11-24 14:30:00,106.04000091552734,104.52999877929688,104.52999877929688,1159600
102.77281188964844,106.45999908447266,2015-11-25 14:30:00,106.76000213623047,105.37999725341797,105.91000366210938,1152300
102.5314712524414,106.20999908447266,2015-11-27 14:30:00,106.68000030517578,105.54000091552734,106.27999877929688,491600
102.0777587890625,105.73999786376953,2015-11-30 14:30:00,106.48999786376953,105.12000274658203,106.36000061035156,1560400
103.06242370605469,106.76000213623047,2015-12-01 14:30:00,106.87000274658203,105.81999969482422,106.38999938964844,1008300
101.69160461425781,105.33999633789062,2015-12-02 14:30:00,106.73999786376953,105.08000183105469,106.19999694824219,996000
100.68763732910156,104.30000305175781,2015-12-03 14:30:00,105.98999786376953,103.91999816894531,105.4000015258789,1131600
102.2901382446289,105.95999908447266,2015-12-04 14:30:00,106.37000274658203,104.37000274658203,104.51000213623047,1079800
101.3537368774414,104.98999786376953,2015-12-07 14:30:00,105.86000061035156,104.27999877929688,105.2699966430664,1000700
99.1913070678711,102.75,2015-12-08 14:30:00,104.52999877929688,102.66000366210938,103.91999816894531,1568200
98.03287506103516,101.55000305175781,2015-12-09 14:30:00,103.58000183105469,100.58999633789062,102.75,2035900
97.3860855102539,100.87999725341797,2015-12-10 14:30:00,101.73999786376953,100.51000213623047,101.33000183105469,1651600
95.310546875,98.7300033569336,2015-12-11 14:30:00,100.87999725341797,98.41000366210938,100.87999725341797,1783100
94.34519958496094,97.7300033569336,2015-12-14 14:30:00,98.95999908447266,96.87999725341797,98.55999755859375,2204700
95.13677978515625,98.55000305175781,2015-12-15 14:30:00,99.41999816894531,98.47000122070312,98.72000122070312,1258100
96.74894714355469,100.22000122070312,2015-12-16 14:30:00,100.33000183105469,98.52999877929688,99.18000030517578,1585800
94.8375244140625,98.23999786376953,2015-12-17 14:30:00,100.66000366210938,98.16999816894531,100.52999877929688,1583900
92.95503997802734,96.29000091552734,2015-12-18 14:30:00,98.19999694824219,96.25,97.98999786376953,1808000
93.86250305175781,97.2300033569336,2015-12-21 14:30:00,97.37000274658203,96.48999786376953,96.91999816894531,1202200
95.3395004272461,98.76000213623047,2015-12-22 14:30:00,99.16000366210938,97.55999755859375,97.9000015258789,884000
96.76824188232422,100.23999786376953,2015-12-23 14:30:00,100.5199966430664,99.23999786376953,99.37999725341797,828000
96.91305541992188,100.38999938964844,2015-12-24 14:30:00,100.79000091552734,99.94000244140625,99.94000244140625,371800
96.44002532958984,99.9000015258789,2015-12-28 14:30:00,100.33000183105469,99.41999816894531,100.19999694824219,677400
97.09646606445312,100.58000183105469,2015-12-29 14:30:00,100.94000244140625,99.94999694824219,100.81999969482422,676300
96.31450653076172,99.7699966430664,2015-12-30 14:30:00,100.70999908447266,99.70999908447266,100.33000183105469,730400
95.39742279052734,98.81999969482422,2015-12-31 14:30:00,100.0,98.79000091552734,99.37999725341797,895400
94.56721496582031,97.95999908447266,2016-01-04 14:30:00,97.98999786376953,96.05999755859375,97.2699966430664,1636400
94.90510559082031,98.30999755859375,2016-01-05 14:30:00,99.31999969482422,97.47000122070312,98.62999725341797,1401500
93.12882995605469,96.47000122070312,2016-01-06 14:30:00,97.19999694824219,95.93000030517578,96.44000244140625,1809300
91.9510726928711,95.25,2016-01-07 14:30:00,97.13999938964844,94.68000030517578,95.06999969482422,2597600
91.21739196777344,94.48999786376953,2016-01-08 14:30:00,96.63999938964844,94.16999816894531,95.68000030517578,1979300
91.17876434326172,94.44999694824219,2016-01-11 14:30:00,95.72000122070312,93.7300033569336,94.83999633789062,2185500
91.82556915283203,95.12000274658203,2016-01-12 14:30:00,95.55999755859375,93.79000091552734,95.33000183105469,1320700
89.8272705078125,93.05000305175781,2016-01-13 14:30:00,96.23999786376953,93.01000213623047,95.9800033569336,2119900
90.32926177978516,93.56999969482422,2016-01-14 14:30:00,94.12000274658203,91.5999984741211,93.29000091552734,2300200
88.71710205078125,91.9000015258789,2016-01-15 14:30:00,92.3499984741211,90.33999633789062,91.63999938964844,2052800
88.42748260498047,91.5999984741211,2016-01-19 14:30:00,93.25,89.9000015258789,92.80000305175781,3318000
90.2809829711914,93.5199966430664,2016-01-20 14:30:00,94.69000244140625,90.0199966430664,90.44999694824219,4935200
88.73641204833984,91.91999816894531,2016-01-21 14:30:00,94.66999816894531,90.61000061035156,93.0,4310700
89.93346405029297,93.16000366210938,2016-01-22 14:30:00,94.80999755859375,92.33000183105469,92.79000091552734,1860700
87.95446014404297,91.11000061035156,2016-01-25 14:30:00,93.31999969482422,90.93000030517578,92.80999755859375,1623200
89.37355041503906,92.58000183105469,2016-01-26 14:30:00,93.29000091552734,91.11000061035156,91.4800033569336,1235900
89.58592987060547,92.80000305175781,2016-01-27 14:30:00,94.23999786376953,91.9000015258789,92.43000030517578,1887400
88.90050506591797,92.08999633789062,2016-01-28 14:30:00,94.04000091552734,91.9800033569336,93.29000091552734,2347300
91.82556915283203,95.12000274658203,2016-01-29 14:30:00,95.13999938964844,92.27999877929688,92.72000122070312,2365400
92.279296875,95.58999633789062,2016-02-01 14:30:00,95.9000015258789,93.25,93.70999908447266,1748400
89.81761932373047,93.04000091552734,2016-02-02 14:30:00,94.97000122070312,92.66000366210938,94.97000122070312,1636000
91.81592559814453,95.11000061035156,2016-02-03 14:30:00,95.1500015258789,91.87000274658203,94.29000091552734,1831600
92.38549041748047,95.69999694824219,2016-02-04 14:30:00,96.31999969482422,94.5999984741211,95.33000183105469,1439600
89.65349578857422,92.87000274658203,2016-02-05 14:30:00,95.83000183105469,92.70999908447266,95.30999755859375,1544400
86.54501342773438,89.6500015258789,2016-02-08 14:30:00,92.27999877929688,88.86000061035156,92.20999908447266,1926800
87.83861541748047,90.98999786376953,2016-02-09 14:30:00,91.68000030517578,88.37000274658203,88.62000274658203,1494200
88.1764907836914,91.33999633789062,2016-02-10 14:30:00,93.20999908447266,91.04000091552734,91.66999816894531,1240200
86.17819213867188,89.2699966430664,2016-02-11 14:30:00,90.7300033569336,88.47000122070312,89.3499984741211,1796500
88.60124969482422,91.77999877929688,2016-02-12 14:30:00,92.13999938964844,89.62000274658203,90.05999755859375,1438700
90.37753295898438,93.62000274658203,2016-02-16 14:30:00,93.7699966430664,91.77999877929688,93.05999755859375,1198900
92.0637435913086,95.0,2016-02-17 14:30:00,95.44999694824219,93.01000213623047,94.30999755859375,1850200
91.7633285522461,94.69000244140625,2016-02-18 14:30:00,95.58000183105469,94.13999938964844,95.19999694824219,1506400
92.67427062988281,95.62999725341797,2016-02-19 14:30:00,95.73999786376953,93.68000030517578,94.66000366210938,1592300
93.7305908203125,96.72000122070312,2016-02-22 14:30:00,98.0,95.86000061035156,96.87000274658203,1291100
91.93775939941406,94.87000274658203,2016-02-23 14:30:00,96.66000366210938,94.69999694824219,96.54000091552734,1260300
92.72272491455078,95.68000030517578,2016-02-24 14:30:00,95.80999755859375,92.94999694824219,93.61000061035156,815200
94.0116195678711,97.01000213623047,2016-02-25 14:30:00,97.05999755859375,94.55999755859375,96.11000061035156,1036800
95.12609100341797,98.16000366210938,2016-02-26 14:30:00,98.44999694824219,97.36000061035156,97.7300033569336,1079000
93.54646301269531,96.52999877929688,2016-02-29 14:30:00,98.83999633789062,96.48999786376953,97.97000122070312,1430900
96.502197265625,99.58000183105469,2016-03-01 14:30:00,100.48999786376953,96.91999816894531,97.55000305175781,1503400
96.2599105834961,99.33000183105469,2016-03-02 14:30:00,99.73999786376953,98.43000030517578,99.22000122070312,945100
97.19994354248047,100.30000305175781,2016-03-03 14:30:00,100.75,98.2300033569336,98.95999908447266,1919400
99.32225036621094,102.48999786376953,2016-03-04 14:30:00,102.93000030517578,100.31999969482422,100.66999816894531,2072600
100.175048828125,103.37000274658203,2016-03-07 14:30:00,103.44999694824219,101.63999938964844,101.83999633789062,1649000
98.3725357055664,101.51000213623047,2016-03-08 14:30:00,102.6500015258789,101.3499984741211,102.37999725341797,1280000
99.11873626708984,102.27999877929688,2016-03-09 14:30:00,102.70999908447266,101.37999725341797,102.19999694824219,1147500
99.7292709350586,102.91000366210938,2016-03-10 14:30:00,104.22000122070312,101.83999633789062,102.5999984741211,901500
101.76436614990234,105.01000213623047,2016-03-11 14:30:00,105.2300033569336,103.77999877929688,104.1500015258789,1479600
101.5027084350586,104.73999786376953,2016-03-14 13:30:00,105.0999984741211,104.0,104.33999633789062,878700
101.5220947265625,104.76000213623047,2016-03-15 13:30:00,104.94999694824219,103.62000274658203,103.94999694824219,819300
103.31491088867188,106.61000061035156,2016-03-16 13:30:00,106.66999816894531,104.12999725341797,104.22000122070312,1122600
106.01866912841797,109.4000015258789,2016-03-17 13:30:00,109.70999908447266,106.9000015258789,106.9000015258789,1789700
105.53413391113281,108.9000015258789,2016-03-18 13:30:00,110.58000183105469,108.05000305175781,109.62000274658203,2628400
105.5244369506836,108.88999938964844,2016-03-21 13:30:00,110.52999877929688,108.27999877929688,109.62000274658203,2170300
106.445068359375,109.83999633789062,2016-03-22 13:30:00,110.19999694824219,108.55999755859375,108.80000305175781,1663300
105.76671600341797,109.13999938964844,2016-03-23 13:30:00,109.68000030517578,108.12999725341797,108.91000366210938,1222300
105.58257293701172,108.94999694824219,2016-03-24 13:30:00,109.05999755859375,107.37999725341797,108.19999694824219,1386000
106.01866912841797,109.4000015258789,2016-03-28 13:30:00,109.61000061035156,108.73999786376953,109.38999938964844,1043300
107.15249633789062,110.56999969482422,2016-03-29 13:30:00,110.58999633789062,108.61000061035156,108.80000305175781,1023900
108.44141387939453,111.9000015258789,2016-03-30 13:30:00,112.0999984741211,110.7300033569336,111.0,1636800
108.0440673828125,111.48999786376953,2016-03-31 13:30:00,112.08000183105469,111.12999725341797,111.9000015258789,1438900
109.614013671875,113.11000061035156,2016-04-01 13:30:00,113.29000091552734,110.22000122070312,110.44000244140625,1453000
108.72244262695312,112.19000244140625,2016-04-04 13:30:00,113.2300033569336,111.62999725341797,113.1500015258789,1390500
107.98593139648438,111.43000030517578,2016-04-05 13:30:00,112.04000091552734,110.91000366210938,111.48999786376953,1319200
108.6158447265625,112.08000183105469,2016-04-06 13:30:00,112.19999694824219,110.63999938964844,111.37000274658203,812100
107.19127655029297,110.61000061035156,2016-04-07 13:30:00,111.83000183105469,110.08000183105469,111.3499984741211,921200
108.37357330322266,111.83000183105469,2016-04-08 13:30:00,112.13999938964844,111.02999877929688,111.02999877929688,712000
108.22820281982422,111.68000030517578,2016-04-11 13:30:00,112.83999633789062,111.58999633789062,112.06999969482422,887100
109.44926452636719,112.94000244140625,2016-04-12 13:30:00,113.16999816894531,111.36000061035156,112.08999633789062,866400
110.69939422607422,114.2300033569336,2016-04-13 13:30:00,114.29000091552734,112.73999786376953,113.41999816894531,1062900
110.97073364257812,114.51000213623047,2016-04-14 13:30:00,114.58999633789062,113.73999786376953,113.73999786376953,1070100
111.7847671508789,115.3499984741211,2016-04-15 13:30:00,115.4000015258789,114.38999938964844,114.69000244140625,1284900
112.17240905761719,115.75,2016-04-18 13:30:00,115.93000030517578,114.63999938964844,115.0,1543200
112.94768524169922,116.55000305175781,2016-04-19 13:30:00,116.80000305175781,115.7699966430664,116.23999786376953,1466600
112.4825210571289,116.06999969482422,2016-04-20 13:30:00,117.0,115.55000305175781,116.8499984741211,1593700
106.85208892822266,110.26000213623047,2016-04-21 13:30:00,113.0,110.0999984741211,111.69999694824219,3641300
109.69153594970703,113.19000244140625,2016-04-22 13:30:00,113.38999938964844,110.77999877929688,111.3499984741211,2145500
109.1197738647461,112.5999984741211,2016-04-25 13:30:00,113.30000305175781,111.97000122070312,113.0,951000
110.0404052734375,113.55000305175781,2016-04-26 13:30:00,113.91000366210938,113.01000213623047,113.37000274658203,1525900
109.49771881103516,112.98999786376953,2016-04-27 13:30:00,114.6500015258789,112.58999633789062,113.88999938964844,1246900
109.28450775146484,112.7699966430664,2016-04-28 13:30:00,113.4000015258789,111.52999877929688,111.88999938964844,1617400
106.97807312011719,110.38999938964844,2016-04-29 13:30:00,112.7300033569336,109.75,112.4000015258789,2308500
107.80181121826172,111.23999786376953,2016-05-02 13:30:00,111.25,109.04000091552734,110.18000030517578,1390100
106.1155776977539,109.5,2016-05-03 13:30:00,110.22000122070312,109.0199966430664,110.08999633789062,1303300
105.23370361328125,108.58999633789062,2016-05-04 13:30:00,109.36000061035156,108.0,108.51000213623047,1062100
105.22402954101562,108.58000183105469,2016-05-05 13:30:00,109.52999877929688,108.2300033569336,109.04000091552734,810200
105.3504638671875,108.30999755859375,2016-05-06 13:30:00,108.30999755859375,107.18000030517578,107.69999694824219,1172300
104.50423431396484,107.44000244140625,2016-05-09 13:30:00,108.2300033569336,107.29000091552734,108.13999938964844,1046600
105.75899505615234,108.7300033569336,2016-05-10 13:30:00,108.83000183105469,107.26000213623047,107.80000305175781,805700
104.48478698730469,107.41999816894531,2016-05-11 13:30:00,109.19999694824219,107.37999725341797,108.73999786376953,1623300
104.55287170410156,107.48999786376953,2016-05-12 13:30:00,108.55000305175781,106.36000061035156,108.2300033569336,1130300
103.78446197509766,106.69999694824219,2016-05-13 13:30:00,108.06999969482422,106.47000122070312,107.56999969482422,1547600
105.20458221435547,108.16000366210938,2016-05-16 13:30:00,108.63999938964844,107.08999633789062,107.19000244140625,1488600
104.08599853515625,107.01000213623047,2016-05-17 13:30:00,108.2699966430664,106.69000244140625,107.81999969482422,1227000
103.48292541503906,106.38999938964844,2016-05-18 13:30:00,107.79000091552734,106.06999969482422,106.93000030517578,1996200
102.75341796875,105.63999938964844,2016-05-19 13:30:00,106.6500015258789,104.95999908447266,106.0,1153900
103.30784606933594,106.20999908447266,2016-05-20 13:30:00,107.02999877929688,105.93000030517578,106.37999725341797,906300
103.52183532714844,106.43000030517578,2016-05-23 13:30:00,106.83000183105469,105.80000305175781,106.19000244140625,1485400
104.81549835205078,107.76000213623047,2016-05-24 13:30:00,108.1500015258789,106.45999908447266,106.56999969482422,1084700
105.36018371582031,108.31999969482422,2016-05-25 13:30:00,108.7300033569336,107.69999694824219,108.26000213623047,800600
104.75713348388672,107.69999694824219,2016-05-26 13:30:00,109.0,107.58999633789062,108.3499984741211,561900
105.63255310058594,108.5999984741211,2016-05-27 13:30:00,108.70999908447266,107.30000305175781,107.95999908447266,732400
104.7376937866211,107.68000030517578,2016-05-31 13:30:00,108.87000274658203,107.19999694824219,108.6500015258789,1807500
105.02948760986328,107.9800033569336,2016-06-01 13:30:00,108.20999908447266,106.48999786376953,107.68000030517578,998400
105.24347686767578,108.19999694824219,2016-06-02 13:30:00,108.19999694824219,106.88999938964844,107.36000061035156,759900
104.72795104980469,107.66999816894531,2016-06-03 13:30:00,108.16999816894531,106.86000061035156,108.06999969482422,1338700
105.1656723022461,108.12000274658203,2016-06-06 13:30:00,108.87000274658203,107.68000030517578,108.0999984741211,935900
104.8252182006836,107.7699966430664,2016-06-07 13:30:00,108.36000061035156,107.37000274658203,108.1500015258789,1238100
107.91832733154297,110.94999694824219,2016-06-08 13:30:00,111.26000213623047,107.51000213623047,108.05999755859375,1908000
107.41252899169922,110.43000030517578,2016-06-09 13:30:00,110.48999786376953,109.5199966430664,110.20999908447266,2689500
106.25505065917969,109.23999786376953,2016-06-10 13:30:00,109.86000061035156,108.7699966430664,109.7699966430664,1255800
104.74740600585938,107.69000244140625,2016-06-13 13:30:00,109.25,107.61000061035156,108.94000244140625,1343900
104.1540756225586,107.08000183105469,2016-06-14 13:30:00,107.8499984741211,106.43000030517578,107.30999755859375,1221800
103.7066421508789,106.62000274658203,2016-06-15 13:30:00,107.63999938964844,106.5,107.30000305175781,1056500
104.03734588623047,106.95999908447266,2016-06-16 13:30:00,107.01000213623047,105.05999755859375,105.62000274658203,843400
105.22402954101562,108.18000030517578,2016-06-17 13:30:00,108.26000213623047,106.62999725341797,107.0,1807100
105.45745849609375,108.41999816894531,2016-06-20 13:30:00,109.7300033569336,108.31999969482422,109.27999877929688,1227900
105.10729217529297,108.05999755859375,2016-06-21 13:30:00,108.6500015258789,107.83000183105469,108.6500015258789,1346300
104.86412811279297,107.80999755859375,2016-06-22 13:30:00,108.4000015258789,107.66000366210938,108.4000015258789,1219400
108.18095397949219,111.22000122070312,2016-06-23 13:30:00,111.26000213623047,109.44000244140625,109.69999694824219,2078300
99.92294311523438,102.7300033569336,2016-06-24 13:30:00,108.08999633789062,102.20999908447266,108.08999633789062,3821500
95.99333953857422,98.69000244140625,2016-06-27 13:30:00,101.47000122070312,98.08000183105469,101.41000366210938,3445900
97.8122329711914,100.55999755859375,2016-06-28 13:30:00,100.55999755859375,98.41999816894531,99.94999694824219,1941300
99.68949127197266,102.48999786376953,2016-06-29 13:30:00,102.72000122070312,101.56999969482422,101.94000244140625,1582800
101.30413818359375,104.1500015258789,2016-06-30 13:30:00,104.1500015258789,101.98999786376953,102.56999969482422,2193000
101.66402435302734,104.5199966430664,2016-07-01 13:30:00,105.48999786376953,104.06999969482422,104.1500015258789,1334300
99.84512329101562,102.6500015258789,2016-07-05 13:30:00,103.93000030517578,101.80000305175781,103.91999816894531,1898800
100.15637969970703,102.97000122070312,2016-07-06 13:30:00,103.0199966430664,101.72000122070312,102.19999694824219,1451500
100.2147445678711,103.02999877929688,2016-07-07 13:30:00,103.77999877929688,102.52999877929688,103.27999877929688,1547900
103.41484832763672,106.31999969482422,2016-07-08 13:30:00,106.61000061035156,103.9800033569336,104.18000030517578,1649100
103.69691467285156,106.61000061035156,2016-07-11 13:30:00,107.04000091552734,106.41999816894531,106.62999725341797,892200
105.72980499267578,108.69999694824219,2016-07-12 13:30:00,109.5,107.30999755859375,107.55000305175781,1404000
106.47876739501953,109.47000122070312,2016-07-13 13:30:00,109.55000305175781,107.95999908447266,109.0999984741211,1238500
105.66172790527344,108.62999725341797,2016-07-14 13:30:00,109.98999786376953,108.3499984741211,109.80999755859375,1359100
106.28423309326172,109.2699966430664,2016-07-15 13:30:00,109.4800033569336,108.13999938964844,109.0199966430664,1341000
106.31341552734375,109.30000305175781,2016-07-18 13:30:00,109.5,108.61000061035156,109.0,870100
105.41854858398438,108.37999725341797,2016-07-19 13:30:00,108.9800033569336,107.7699966430664,108.63999938964844,1424200
107.02346801757812,110.02999877929688,2016-07-20 13:30:00,110.13999938964844,108.4800033569336,108.79000091552734,2360900
105.62281036376953,108.58999633789062,2016-07-21 13:30:00,110.12999725341797,107.55999755859375,109.0,2133100
104.70850372314453,107.6500015258789,2016-07-22 13:30:00,108.58999633789062,107.30999755859375,108.58999633789062,1708800
103.67745971679688,106.58999633789062,2016-07-25 13:30:00,107.3499984741211,106.4000015258789,107.2300033569336,1670800
103.84282684326172,106.76000213623047,2016-07-26 13:30:00,107.06999969482422,106.18000030517578,107.06999969482422,2284800
103.19113159179688,106.08999633789062,2016-07-27 13:30:00,106.87000274658203,105.76000213623047,106.87000274658203,1625900
102.5978012084961,105.4800033569336,2016-07-28 13:30:00,106.31999969482422,104.81999969482422,105.72000122070312,2163000
101.84883117675781,104.70999908447266,2016-07-29 13:30:00,105.2300033569336,103.73999786376953,104.98999786376953,2107700
101.80992889404297,104.66999816894531,2016-08-01 13:30:00,105.05999755859375,103.73999786376953,104.0999984741211,1641900
100.85670471191406,103.69000244140625,2016-08-02 13:30:00,104.87999725341797,103.3499984741211,104.87999725341797,1473500
101.47921752929688,104.33000183105469,2016-08-03 13:30:00,104.37999725341797,102.87000274658203,104.12999725341797,2415800
101.25550842285156,104.0999984741211,2016-08-04 13:30:00,104.81999969482422,103.8499984741211,104.30000305175781,1281100
101.57649230957031,104.43000030517578,2016-08-05 13:30:00,104.98999786376953,104.3499984741211,104.61000061035156,1063100
102.01587677001953,104.4800033569336,2016-08-08 13:30:00,104.69999694824219,104.05000305175781,104.44999694824219,1210900
101.90847778320312,104.37000274658203,2016-08-09 13:30:00,105.19999694824219,104.19000244140625,104.3499984741211,1044600
102.2209243774414,104.69000244140625,2016-08-10 13:30:00,105.06999969482422,104.08999633789062,104.69000244140625,1102400
102.26973724365234,104.73999786376953,2016-08-11 13:30:00,105.37999725341797,104.43000030517578,104.81999969482422,1092500
101.53742218017578,103.98999786376953,2016-08-12 13:30:00,104.87000274658203,103.70999908447266,104.61000061035156,977600
101.99634552001953,104.45999908447266,2016-08-15 13:30:00,104.75,104.0199966430664,104.12999725341797,1037100
101.2054443359375,103.6500015258789,2016-08-16 13:30:00,105.36000061035156,103.6500015258789,104.51000213623047,1287100
101.14685821533203,103.58999633789062,2016-08-17 13:30:00,104.02999877929688,102.9000015258789,103.66000366210938,1242200
101.32261657714844,103.7699966430664,2016-08-18 13:30:00,103.95999908447266,103.36000061035156,103.58999633789062,1036900
102.2599868774414,104.7300033569336,2016-08-19 13:30:00,104.86000061035156,103.22000122070312,103.22000122070312,1089900
102.72864532470703,105.20999908447266,2016-08-22 13:30:00,105.27999877929688,104.0,104.43000030517578,1148500
103.92965698242188,106.44000244140625,2016-08-23 13:30:00,106.7699966430664,105.5999984741211,105.87000274658203,1341700
103.88082122802734,106.38999938964844,2016-08-24 13:30:00,107.12000274658203,106.0,106.27999877929688,1808400
104.23233795166016,106.75,2016-08-25 13:30:00,107.19000244140625,106.05000305175781,106.0999984741211,914100
103.25592041015625,105.75,2016-08-26 13:30:00,107.6500015258789,105.41000366210938,106.97000122070312,929700
105.0622787475586,107.5999984741211,2016-08-29 13:30:00,107.88999938964844,105.91000366210938,105.91000366210938,1246600
104.74983215332031,107.27999877929688,2016-08-30 13:30:00,107.69999694824219,106.66999816894531,107.3499984741211,1036500
103.38285064697266,105.87999725341797,2016-08-31 13:30:00,107.08000183105469,105.43000030517578,107.08000183105469,1392300
103.4804916381836,105.9800033569336,2016-09-01 13:30:00,106.30000305175781,105.08999633789062,106.0199966430664,929600
104.51549530029297,107.04000091552734,2016-09-02 13:30:00,107.06999969482422,106.31999969482422,106.73999786376953,662700
105.0818099975586,107.62000274658203,2016-09-06 13:30:00,107.97000122070312,107.01000213623047,107.37000274658203,1320400
104.21281433105469,106.7300033569336,2016-09-07 13:30:00,107.79000091552734,106.41999816894531,107.23999786376953,1337900
102.81653594970703,105.30000305175781,2016-09-08 13:30:00,106.87999725341797,105.27999877929688,106.54000091552734,961300
98.48123931884766,100.86000061035156,2016-09-09 13:30:00,104.58000183105469,100.76000213623047,104.58000183105469,2339500
100.3364486694336,102.76000213623047,2016-09-12 13:30:00,102.9800033569336,100.41999816894531,100.4800033569336,1597200
98.77417755126953,101.16000366210938,2016-09-13 13:30:00,101.94999694824219,100.58000183105469,101.70999908447266,1425400
98.30549621582031,100.68000030517578,2016-09-14 13:30:00,101.37999725341797,99.95999908447266,101.06999969482422,1098700
98.85227966308594,101.23999786376953,2016-09-15 13:30:00,101.5999984741211,100.37999725341797,100.69000244140625,1193000
97.84657287597656,100.20999908447266,2016-09-16 13:30:00,100.81999969482422,99.77999877929688,100.62999725341797,1986700
98.69606018066406,101.08000183105469,2016-09-19 13:30:00,101.55000305175781,100.52999877929688,100.93000030517578,1265600
98.8718032836914,101.26000213623047,2016-09-20 13:30:00,101.94999694824219,100.41000366210938,100.41000366210938,1317400
100.04351806640625,102.45999908447266,2016-09-21 13:30:00,102.54000091552734,101.26000213623047,101.80000305175781,1144000
100.70747375488281,103.13999938964844,2016-09-22 13:30:00,104.22000122070312,102.91999816894531,103.51000213623047,1149800
100.83440399169922,103.2699966430664,2016-09-23 13:30:00,103.76000213623047,102.77999877929688,103.11000061035156,1649000
99.7310562133789,102.13999938964844,2016-09-26 13:30:00,103.29000091552734,102.01000213623047,103.06999969482422,928400
100.03376007080078,102.44999694824219,2016-09-27 13:30:00,102.62999725341797,101.55000305175781,102.0,1290400
101.12733459472656,103.56999969482422,2016-09-28 13:30:00,103.94999694824219,102.37000274658203,102.91999816894531,1300300
99.65294647216797,102.05999755859375,2016-09-29 13:30:00,103.95999908447266,101.9800033569336,103.6500015258789,1162400
100.92229461669922,103.36000061035156,2016-09-30 13:30:00,103.8499984741211,102.6500015258789,102.6500015258789,1716500
101.00041198730469,103.44000244140625,2016-10-03 13:30:00,104.04000091552734,103.2699966430664,103.2699966430664,1348300
99.64318084716797,102.05000305175781,2016-10-04 13:30:00,104.08000183105469,101.80000305175781,103.80000305175781,1560000
99.18426513671875,101.58000183105469,2016-10-05 13:30:00,102.7300033569336,101.55000305175781,102.30000305175781,912400
99.7798843383789,102.19000244140625,2016-10-06 13:30:00,102.36000061035156,101.22000122070312,101.4000015258789,1078800
91.5194091796875,93.7300033569336,2016-10-07 13:30:00,97.5,92.51000213623047,97.19000244140625,7136800
91.6365737915039,93.8499984741211,2016-10-10 13:30:00,94.98999786376953,93.22000122070312,94.30999755859375,3249700
90.1231460571289,92.30000305175781,2016-10-11 13:30:00,93.25,91.51000213623047,93.25,4157700
89.7716293334961,91.94000244140625,2016-10-12 13:30:00,92.55999755859375,91.43000030517578,92.38999938964844,2171200
89.94738006591797,92.12000274658203,2016-10-13 13:30:00,92.36000061035156,90.30999755859375,91.01000213623047,2603400
90.41605377197266,92.5999984741211,2016-10-14 13:30:00,93.11000061035156,92.55000305175781,92.75,2453200
90.47464752197266,92.66000366210938,2016-10-17 13:30:00,92.87999725341797,92.23999786376953,92.5999984741211,1918800
90.62110900878906,92.80999755859375,2016-10-18 13:30:00,93.83000183105469,92.79000091552734,93.75,1314800
90.37700653076172,92.55999755859375,2016-10-19 13:30:00,93.18000030517578,92.16000366210938,92.81999969482422,2165900
90.47464752197266,92.66000366210938,2016-10-20 13:30:00,94.47000122070312,92.51000213623047,92.69000244140625,2411400
90.20124816894531,92.37999725341797,2016-10-21 13:30:00,92.58999633789062,90.4800033569336,91.41999816894531,2366900
91.04096984863281,93.23999786376953,2016-10-24 13:30:00,93.51000213623047,92.69999694824219,92.75,2011100
89.06861877441406,91.22000122070312,2016-10-25 13:30:00,92.05999755859375,89.63999938964844,90.55000305175781,4338500
90.33794403076172,92.5199966430664,2016-10-26 13:30:00,92.62000274658203,91.01000213623047,91.01000213623047,2515800
91.14837646484375,93.3499984741211,2016-10-27 13:30:00,93.62999725341797,92.73999786376953,93.02999877929688,2290700
90.6796875,92.87000274658203,2016-10-28 13:30:00,94.52999877929688,92.2699966430664,93.44000244140625,2062000
90.93355560302734,93.12999725341797,2016-10-31 13:30:00,93.44000244140625,92.80999755859375,93.3499984741211,2173000
90.55276489257812,92.73999786376953,2016-11-01 13:30:00,93.58999633789062,91.75,93.25,2224200
90.20124816894531,92.37999725341797,2016-11-02 13:30:00,93.98999786376953,92.37000274658203,92.8499984741211,2226700
89.58611297607422,91.75,2016-11-03 13:30:00,93.13999938964844,91.66000366210938,92.76000213623047,1646900
90.62110900878906,92.80999755859375,2016-11-04 13:30:00,93.66000366210938,91.54000091552734,92.0199966430664,1528600
92.1247787475586,94.3499984741211,2016-11-07 14:30:00,94.41999816894531,93.56999969482422,94.16000366210938,2066800
92.8994369506836,94.73999786376953,2016-11-08 14:30:00,95.19000244140625,93.5,93.83000183105469,1665300
93.43875122070312,95.29000091552734,2016-11-09 14:30:00,95.97000122070312,90.87999725341797,92.36000061035156,3225500
94.9880599975586,96.87000274658203,2016-11-10 14:30:00,98.20999908447266,95.77999877929688,95.91000366210938,2826800
93.90943145751953,95.7699966430664,2016-11-11 14:30:00,97.2699966430664,95.48999786376953,96.31999969482422,2013800
94.18399047851562,96.05000305175781,2016-11-14 14:30:00,96.8499984741211,95.12999725341797,96.4000015258789,2000800
94.3604965209961,96.2300033569336,2016-11-15 14:30:00,96.54000091552734,95.51000213623047,96.0999984741211,1778800
94.48796081542969,96.36000061035156,2016-11-16 14:30:00,96.56999969482422,95.86000061035156,95.95999908447266,1622800
94.73310852050781,96.61000061035156,2016-11-17 14:30:00,96.83000183105469,96.0999984741211,96.7699966430664,1118700
93.34070587158203,95.19000244140625,2016-11-18 14:30:00,96.2300033569336,95.12000274658203,96.2300033569336,1276900
94.32127380371094,96.19000244140625,2016-11-21 14:30:00,96.33000183105469,95.30999755859375,95.55999755859375,1807100
94.742919921875,96.62000274658203,2016-11-22 14:30:00,96.70999908447266,96.02999877929688,96.44999694824219,1513600
95.6940689086914,97.58999633789062,2016-11-23 14:30:00,97.69000244140625,96.36000061035156,96.58999633789062,1089300
96.22357940673828,98.12999725341797,2016-11-25 14:30:00,98.12999725341797,97.3499984741211,97.62999725341797,482500
95.45873260498047,97.3499984741211,2016-11-28 14:30:00,97.94999694824219,96.7699966430664,97.91999816894531,1251200
96.09609985351562,98.0,2016-11-29 14:30:00,98.44999694824219,96.91999816894531,97.3499984741211,1467900
94.06632232666016,95.93000030517578,2016-11-30 14:30:00,98.69000244140625,95.83000183105469,98.45999908447266,2704300
93.38972473144531,95.23999786376953,2016-12-01 14:30:00,96.80000305175781,94.8499984741211,96.41999816894531,2444100
92.7425537109375,94.58000183105469,2016-12-02 14:30:00,95.5,94.1500015258789,95.29000091552734,2084400
94.12515258789062,95.98999786376953,2016-12-05 14:30:00,96.98999786376953,95.2300033569336,95.36000061035156,1634600
94.3506851196289,96.22000122070312,2016-12-06 14:30:00,96.36000061035156,95.5199966430664,95.9800033569336,1358000
96.2726058959961,98.18000030517578,2016-12-07 14:30:00,98.20999908447266,96.20999908447266,96.30999755859375,1581700
97.47870635986328,99.41000366210938,2016-12-08 14:30:00,99.66999816894531,97.87999725341797,98.18000030517578,1494200
97.37085723876953,99.30000305175781,2016-12-09 14:30:00,100.16999816894531,98.91999816894531,99.4800033569336,1354900
96.73348236083984,98.6500015258789,2016-12-12 14:30:00,99.8499984741211,97.76000213623047,99.06999969482422,1528900
95.16455841064453,97.05000305175781,2016-12-13 14:30:00,98.38999938964844,96.6500015258789,98.12999725341797,2145200
94.3016586303711,96.16999816894531,2016-12-14 14:30:00,97.87999725341797,95.91000366210938,97.06999969482422,1576800
94.23301696777344,96.0999984741211,2016-12-15 14:30:00,97.12000274658203,95.62999725341797,96.19999694824219,1684600
94.05651092529297,95.91999816894531,2016-12-16 14:30:00,96.69999694824219,95.77999877929688,96.06999969482422,1946900
94.3506851196289,96.22000122070312,2016-12-19 14:30:00,96.87000274658203,95.97000122070312,96.05999755859375,1473400
93.78195190429688,95.63999938964844,2016-12-20 14:30:00,96.4000015258789,95.55999755859375,96.26000213623047,1418600
94.00747680664062,95.87000274658203,2016-12-21 14:30:00,96.19999694824219,95.05000305175781,95.38999938964844,1189500
93.15438842773438,95.0,2016-12-22 14:30:00,95.98999786376953,94.93000030517578,95.94000244140625,1177500
92.85041046142578,94.69000244140625,2016-12-23 14:30:00,95.04000091552734,93.80000305175781,95.04000091552734,1816200
93.98786163330078,95.8499984741211,2016-12-27 14:30:00,95.93000030517578,94.87999725341797,95.05000305175781,1200000
92.83079528808594,94.66999816894531,2016-12-28 14:30:00,96.47000122070312,94.58999633789062,96.33999633789062,1155100
93.45835876464844,95.30999755859375,2016-12-29 14:30:00,95.31999969482422,94.66999816894531,94.69999694824219,1147700
92.91905975341797,94.76000213623047,2016-12-30 14:30:00,95.5,94.45999908447266,95.43000030517578,1248700
93.39952850341797,95.25,2017-01-03 14:30:00,95.97000122070312,94.56999969482422,95.43000030517578,1358100
95.38028717041016,97.2699966430664,2017-01-04 14:30:00,97.5199966430664,95.62999725341797,95.70999908447266,1334500
93.76234436035156,95.62000274658203,2017-01-05 14:30:00,96.62000274658203,95.4000015258789,96.45999908447266,1661900
93.73292541503906,95.58999633789062,2017-01-06 14:30:00,96.13999938964844,95.29000091552734,95.7699966430664,1379800
94.47815704345703,96.3499984741211,2017-01-09 14:30:00,96.45999908447266,94.7699966430664,95.05000305175781,1454000
94.51738739013672,96.38999938964844,2017-01-10 14:30:00,96.6500015258789,95.66999816894531,96.06999969482422,1418100
94.75271606445312,96.62999725341797,2017-01-11 14:30:00,96.66999816894531,95.58000183105469,96.25,1169900
94.9880599975586,96.87000274658203,2017-01-12 14:30:00,96.9800033569336,95.80000305175781,96.44999694824219,1027100
94.4487533569336,96.31999969482422,2017-01-13 14:30:00,97.0999984741211,96.16999816894531,96.83000183105469,1237900
94.10554504394531,95.97000122070312,2017-01-17 14:30:00,96.08000183105469,94.62000274658203,95.79000091552734,2250300
94.81156158447266,96.69000244140625,2017-01-18 14:30:00,96.8499984741211,95.66000366210938,95.97000122070312,2144200
95.60582733154297,97.5,2017-01-19 14:30:00,98.9800033569336,96.0,97.83999633789062,3378000
97.07667541503906,99.0,2017-01-20 14:30:00,99.81999969482422,97.87000274658203,98.02999877929688,2805500
98.2925796508789,100.23999786376953,2017-01-23 14:30:00,100.30999755859375,98.69999694824219,98.73999786376953,2340700
99.8222885131836,101.80000305175781,2017-01-24 14:30:00,102.55000305175781,100.44000244140625,100.73999786376953,2264400
99.11627960205078,101.08000183105469,2017-01-25 14:30:00,102.27999877929688,100.87999725341797,102.19999694824219,2107500
99.8713150024414,101.8499984741211,2017-01-26 14:30:00,102.0,100.76000213623047,101.63999938964844,1591700
100.03800964355469,102.0199966430664,2017-01-27 14:30:00,102.12000274658203,101.22000122070312,101.69000244140625,1333600
100.04781341552734,102.02999877929688,2017-01-30 14:30:00,102.1500015258789,100.44000244140625,102.1500015258789,1996100
98.06705474853516,100.01000213623047,2017-01-31 14:30:00,101.86000061035156,99.29000091552734,101.72000122070312,2571500
98.60636138916016,100.55999755859375,2017-02-01 14:30:00,100.76000213623047,99.0,99.6500015258789,1643600
98.62598419189453,100.58000183105469,2017-02-02 14:30:00,101.08000183105469,100.04000091552734,100.51000213623047,1971400
98.97899627685547,100.94000244140625,2017-02-03 14:30:00,101.1500015258789,100.41999816894531,101.11000061035156,921600
97.97879791259766,99.91999816894531,2017-02-06 14:30:00,100.98999786376953,99.55000305175781,100.31999969482422,1606000
98.06705474853516,100.01000213623047,2017-02-07 14:30:00,100.81999969482422,99.7699966430664,100.04000091552734,1084100
98.15530395507812,100.0999984741211,2017-02-08 14:30:00,100.2699966430664,99.56999969482422,100.08000183105469,1029100
98.1847152709961,100.12999725341797,2017-02-09 14:30:00,100.4800033569336,99.79000091552734,100.19000244140625,726400
98.58676147460938,100.54000091552734,2017-02-10 14:30:00,100.94999694824219,100.0199966430664,100.19999694824219,1304200
